0.0000 28
0.0833 17
0.1667 37
0.2500 51
0.3334 27
0.4167 40
0.5000 27
0.5834 29
0.6667 23
0.7501 22
0.8334 45
0.9167 8
1.0001 53
1.0834 16
1.1668 50
1.2501 14
1.3334 16
1.4168 16
1.5001 45
1.5835 22
1.6668 28
1.7501 23
1.8335 32
1.9168 29
2.0002 27
2.0835 41
2.1668 65
2.2502 12
2.3335 27
2.4169 31
2.5002 27
2.5835 35
2.6669 31
2.7502 31
2.8336 12
2.9169 20
3.0002 28
3.0836 33
3.1669 35
3.2503 19
3.3336 35
3.4169 17
3.5003 47
3.5836 22
3.6670 27
3.7503 26
3.8336 15
3.9170 23
4.0003 31
4.0837 18
4.1670 14
4.2503 36
4.3337 19
4.4170 28
4.5004 34
4.5837 42
4.6670 17
4.7504 20
4.8337 11
4.9171 34
5.0004 12
5.0837 34
5.1671 16
5.2504 39
5.3338 15
5.4171 15
5.5004 28
5.5838 37
5.6671 26
5.7505 17
5.8338 21
5.9171 22
6.0005 26
6.0838 18
6.1672 12
6.2505 27
6.3338 17
6.4172 33
6.5005 34
6.5839 20
6.6672 15
6.7505 37
6.8339 20
6.9172 11
7.0006 25
7.0839 23
7.1672 58
7.2506 14
7.3339 19
7.4173 18
7.5006 32
7.5839 13
7.6673 30
7.7506 30
7.8340 26
7.9173 42
8.0006 28
8.0840 20
8.1673 43
8.2507 21
8.3340 29
8.4173 42
8.5007 25
8.5840 34
8.6674 13
8.7507 47
8.8340 20
8.9174 13
9.0007 40
9.0841 12
9.1674 24
9.2507 26
9.3341 36
9.4174 11
9.5008 9
9.5841 36
9.6674 25
9.7508 38
9.8341 7
9.9175 33
10.0008 21
10.0841 22
10.1675 21
10.2508 11
10.3342 29
10.4175 5
10.5008 25
10.5842 30
10.6675 21
10.7509 39
10.8342 36
10.9175 14
11.0009 57
11.0842 34
11.1676 27
11.2509 24
11.3342 45
11.4176 28
11.5009 35
11.5843 14
11.6676 34
11.7509 40
11.8343 36
11.9176 20
12.0010 18
12.0843 36
12.1676 19
12.2510 22
12.3343 1
12.4177 39
12.5010 18
12.5843 31
12.6677 32
12.7510 11
12.8344 28
12.9177 26
13.0010 24
13.0844 33
13.1677 29
13.2511 17
13.3344 33
13.4177 18
13.5011 17
13.5844 35
13.6678 30
13.7511 19
13.8344 47
13.9178 29
14.0011 39
14.0845 30
14.1678 29
14.2511 49
14.3345 35
14.4178 35
14.5012 23
14.5845 58
14.6678 26
14.7512 38
14.8345 24
14.9179 76
15.0012 25
15.0845 12
15.1679 47
15.2512 31
15.3346 26
15.4179 16
15.5012 36
15.5846 29
15.6679 33
15.7513 29
15.8346 35
15.9179 11
16.0013 16
16.0846 24
16.1680 33
16.2513 22
16.3346 13
16.4180 19
16.5013 19
16.5847 13
16.6680 10
16.7513 26
16.8347 42
16.9180 17
17.0014 37
17.0847 27
17.1680 27
17.2514 13
17.3347 27
17.4181 8
17.5014 17
17.5847 18
17.6681 15
17.7514 23
17.8348 16
17.9181 22
18.0014 29
18.0848 34
18.1681 21
18.2515 24
18.3348 17
18.4181 13
18.5015 37
18.5848 17
18.6682 82
18.7515 26
18.8348 39
18.9182 29
19.0015 19
19.0849 38
19.1682 36
19.2515 18
19.3349 33
19.4182 24
19.5016 25
19.5849 14
19.6682 20
19.7516 23
19.8349 14
19.9183 21
20.0016 18
20.0849 25
20.1683 22
20.2516 22
20.3350 10
20.4183 31
20.5016 44
20.5850 24
20.6683 53
20.7517 7
20.8350 37
20.9183 26
21.0017 28
21.0850 10
21.1684 39
21.2517 14
21.3350 25
21.4184 25
21.5017 25
21.5851 14
21.6684 11
21.7517 34
21.8351 36
21.9184 39
22.0018 32
22.0851 49
22.1684 39
22.2518 4
22.3351 19
22.4185 40
22.5018 18
22.5851 58
22.6685 22
22.7518 27
22.8352 31
22.9185 23
23.0018 26
23.0852 20
23.1685 19
23.2519 41
23.3352 29
23.4185 28
23.5019 11
23.5852 21
23.6686 36
23.7519 28
23.8352 25
23.9186 30
24.0019 56
24.0853 10
24.1686 30
24.2519 25
24.3353 9
24.4186 33
24.5020 62
24.5853 44
24.6686 31
24.7520 19
24.8353 48
24.9187 11
25.0020 16
25.0853 25
25.1687 27
25.2520 23
25.3354 33
25.4187 20
25.5020 28
25.5854 18
25.6687 9
25.7521 30
25.8354 48
25.9187 15
26.0021 22
26.0854 45
26.1688 33
26.2521 77
26.3354 16
26.4188 50
26.5021 38
26.5855 32
26.6688 31
26.7521 32
26.8355 17
26.9188 34
27.0022 26
27.0855 40
27.1688 27
27.2522 17
27.3355 13
27.4189 11
27.5022 22
27.5855 46
27.6689 24
27.7522 15
27.8356 18
27.9189 11
28.0022 37
28.0856 18
28.1689 8
28.2523 20
28.3356 48
28.4189 16
28.5023 21
28.5856 28
28.6690 29
28.7523 17
28.8356 30
28.9190 6
29.0023 43
29.0857 24
29.1690 37
29.2523 21
29.3357 44
29.4190 14
29.5024 25
29.5857 23
29.6690 26
29.7524 23
29.8357 14
29.9191 54
30.0024 8
30.0857 14
30.1691 50
30.2524 46
30.3358 37
30.4191 35
30.5024 10
30.5858 20
30.6691 43
30.7525 31
30.8358 9
30.9191 14
31.0025 12
31.0858 19
31.1692 15
31.2525 6
31.3358 7
31.4192 44
31.5025 18
31.5859 34
31.6692 14
31.7525 43
31.8359 48
31.9192 4
32.0026 31
32.0859 47
32.1692 49
32.2526 28
32.3359 19
32.4193 14
32.5026 60
32.5859 32
32.6693 18
32.7526 19
32.8360 20
32.9193 35
33.0026 44
33.0860 27
33.1693 27
33.2527 41
33.3360 20
33.4193 47
33.5027 29
33.5860 47
33.6694 36
33.7527 17
33.8360 26
33.9194 17
34.0027 29
34.0861 54
34.1694 33
34.2527 32
34.3361 35
34.4194 41
34.5028 25
34.5861 40
34.6694 17
34.7528 45
34.8361 31
34.9195 23
35.0028 67
35.0861 41
35.1695 14
35.2528 47
35.3362 17
35.4195 19
35.5028 30
35.5862 20
35.6695 42
35.7529 36
35.8362 44
35.9195 21
36.0029 35
36.0862 62
36.1696 31
36.2529 9
36.3362 9
36.4196 26
36.5029 15
36.5863 27
36.6696 34
36.7529 27
36.8363 23
36.9196 8
37.0030 12
37.0863 24
37.1696 24
37.2530 46
37.3363 20
37.4197 12
37.5030 47
37.5863 28
37.6697 30
37.7530 25
37.8364 17
37.9197 27
38.0030 25
38.0864 14
38.1697 29
38.2531 10
38.3364 36
38.4197 13
38.5031 19
38.5864 28
38.6698 26
38.7531 44
38.8364 26
38.9198 10
39.0031 65
39.0865 43
39.1698 22
39.2531 28
39.3365 49
39.4198 31
39.5032 26
39.5865 31
39.6698 38
39.7532 19
39.8365 20
39.9199 28
40.0032 32
40.0865 22
40.1699 18
40.2532 20
40.3366 19
40.4199 53
40.5032 22
40.5866 22
40.6699 32
40.7533 24
40.8366 18
40.9199 17
41.0033 31
41.0866 23
41.1700 27
41.2533 40
41.3366 50
41.4200 32
41.5033 34
41.5867 17
41.6700 25
41.7533 21
41.8367 33
41.9200 23
42.0034 25
42.0867 29
42.1700 9
42.2534 11
42.3367 12
42.4201 12
42.5034 44
42.5867 17
42.6701 34
42.7534 16
42.8368 15
42.9201 26
43.0034 37
43.0868 17
43.1701 27
43.2535 48
43.3368 16
43.4201 16
43.5035 60
43.5868 29
43.6702 16
43.7535 32
43.8368 18
43.9202 12
44.0035 41
44.0869 56
44.1702 37
44.2535 30
44.3369 27
44.4202 11
44.5036 49
44.5869 32
44.6702 30
44.7536 30
44.8369 31
44.9203 30
45.0036 32
45.0869 29
45.1703 16
45.2536 8
45.3370 26
45.4203 6
45.5036 48
45.5870 26
45.6703 33
45.7537 46
45.8370 38
45.9203 15
46.0037 41
46.0870 31
46.1704 27
46.2537 17
46.3370 50
46.4204 29
46.5037 36
46.5871 44
46.6704 34
46.7537 30
46.8371 26
46.9204 32
47.0038 17
47.0871 28
47.1704 30
47.2538 35
47.3371 22
47.4205 16
47.5038 4
47.5871 35
47.6705 17
47.7538 19
47.8372 24
47.9205 46
48.0038 18
48.0872 27
48.1705 23
48.2539 9
48.3372 25
48.4205 35
48.5039 44
48.5872 33
48.6706 38
48.7539 15
48.8372 26
48.9206 39
49.0039 33
49.0873 40
49.1706 33
49.2539 14
49.3373 26
49.4206 16
49.5040 15
49.5873 8
49.6706 39
49.7540 17
49.8373 20
49.9207 58
50.0040 41
50.0873 32
50.1707 30
50.2540 6
50.3374 20
50.4207 21
50.5040 30
50.5874 19
50.6707 26
50.7541 42
50.8374 38
50.9207 8
51.0041 16
51.0874 24
51.1708 7
51.2541 50
51.3374 65
51.4208 32
51.5041 25
51.5875 19
51.6708 22
51.7541 32
51.8375 26
51.9208 20
52.0042 35
52.0875 14
52.1708 50
52.2542 44
52.3375 43
52.4209 32
52.5042 6
52.5875 22
52.6709 43
52.7542 22
52.8376 23
52.9209 21
53.0042 25
53.0876 21
53.1709 38
53.2543 38
53.3376 23
53.4209 63
53.5043 11
53.5876 30
53.6710 19
53.7543 20
53.8376 28
53.9210 62
54.0043 34
54.0877 43
54.1710 22
54.2543 27
54.3377 22
54.4210 14
54.5044 21
54.5877 25
54.6710 33
54.7544 34
54.8377 25
54.9211 5
55.0044 34
55.0877 23
55.1711 9
55.2544 23
55.3378 19
55.4211 16
55.5044 16
55.5878 34
55.6711 23
55.7545 31
55.8378 35
55.9211 48
56.0045 29
56.0878 19
56.1712 30
56.2545 37
56.3378 29
56.4212 8
56.5045 27
56.5879 7
56.6712 22
56.7545 47
56.8379 28
56.9212 18
57.0046 8
57.0879 25
57.1712 9
57.2546 52
57.3379 51
57.4213 17
57.5046 45
57.5879 17
57.6713 12
57.7546 10
57.8380 21
57.9213 23
58.0046 16
58.0880 31
58.1713 3
58.2547 28
58.3380 15
58.4213 31
58.5047 13
58.5880 15
58.6714 36
58.7547 29
58.8380 20
58.9214 15
59.0047 7
59.0881 31
59.1714 46
59.2547 30
59.3381 32
59.4214 14
59.5048 40
59.5881 17
59.6714 19
59.7548 8
59.8381 63
59.9215 32
60.0048 11
60.0881 34
60.1715 39
60.2548 23
60.3382 12
60.4215 18
60.5048 28
60.5882 37
60.6715 26
60.7549 18
60.8382 41
60.9215 25
61.0049 20
61.0882 46
61.1716 16
61.2549 7
61.3382 28
61.4216 38
61.5049 21
61.5883 58
61.6716 13
61.7549 23
61.8383 25
61.9216 38
62.0050 27
62.0883 52
62.1716 44
62.2550 16
62.3383 24
62.4217 47
62.5050 34
62.5883 21
62.6717 36
62.7550 19
62.8384 12
62.9217 31
63.0050 21
63.0884 4
63.1717 18
63.2551 18
63.3384 30
63.4217 17
63.5051 21
63.5884 30
63.6718 11
63.7551 29
63.8384 39
63.9218 28
64.0051 24
64.0885 9
64.1718 29
64.2551 8
64.3385 14
64.4218 16
64.5052 20
64.5885 18
64.6718 16
64.7552 23
64.8385 17
64.9219 12
65.0052 17
65.0885 6
65.1719 19
65.2552 8
65.3386 11
65.4219 15
65.5052 17
65.5886 12
65.6719 21
65.7553 24
65.8386 26
65.9219 1
66.0053 7
66.0886 2
66.1720 10
66.2553 5
66.3386 10
66.4220 3
66.5053 6
66.5887 22
66.6720 6
66.7553 13
66.8387 20
66.9220 15
67.0054 1
67.0887 11
67.1720 13
67.2554 7
67.3387 9
67.4221 28
67.5054 4
67.5887 18
67.6721 6
67.7554 9
67.8388 32
67.9221 3
68.0054 5
68.0888 11
68.1721 12
68.2555 25
68.3388 0
68.4221 6
68.5055 5
68.5888 6
68.6722 25
68.7555 9
68.8388 12
68.9222 9
69.0055 10
69.0889 4
69.1722 23
69.2555 7
69.3389 27
69.4222 3
69.5056 11
69.5889 8
69.6722 13
69.7556 3
69.8389 33
69.9223 9
70.0056 6
70.0889 2
70.1723 14
70.2556 6
70.3390 7
70.4223 12
70.5056 16
70.5890 6
70.6723 13
70.7557 15
70.8390 20
70.9223 8
71.0057 6
71.0890 5
71.1724 28
71.2557 10
71.3390 12
71.4224 10
71.5057 4
71.5891 4
71.6724 7
71.7557 10
71.8391 25
71.9224 7
72.0058 6
72.0891 5
72.1724 11
72.2558 34
72.3391 13
72.4225 5
72.5058 13
72.5891 6
72.6725 26
72.7558 5
72.8392 14
72.9225 2
73.0058 13
73.0892 5
73.1725 6
73.2559 30
73.3392 14
73.4225 10
73.5059 17
73.5892 3
73.6726 6
73.7559 132
73.8392 14
73.9226 8
74.0059 4
74.0893 5
74.1726 35
74.2559 7
74.3393 0
74.4226 29
74.5060 28
74.5893 16
74.6726 21
74.7560 4
74.8393 12
74.9227 16
75.0060 7
75.0893 4
75.1727 7
75.2560 4
75.3394 23
75.4227 2
75.5060 7
75.5894 31
75.6727 26
75.7561 5
75.8394 2
75.9227 12
76.0061 6
76.0894 9
76.1728 43
76.2561 22
76.3394 3
76.4228 9
76.5061 2
76.5895 4
76.6728 53
76.7561 2
76.8395 17
76.9228 6
77.0062 5
77.0895 3
77.1728 4
77.2562 14
77.3395 6
77.4229 3
77.5062 5
77.5895 20
77.6729 8
77.7562 25
77.8396 10
77.9229 6
78.0062 17
78.0896 7
78.1729 6
78.2563 15
78.3396 12
78.4229 13
78.5063 7
78.5896 24
78.6730 7
78.7563 13
78.8396 46
78.9230 18
79.0063 13
79.0897 13
79.1730 2
79.2563 15
79.3397 16
79.4230 4
79.5064 27
79.5897 12
79.6730 26
79.7564 10
79.8397 22
79.9231 5
80.0064 19
80.0897 14
80.1731 5
80.2564 11
80.3398 12
80.4231 8
80.5064 4
80.5898 31
80.6731 28
80.7565 11
80.8398 10
80.9231 5
81.0065 15
81.0898 5
81.1732 17
81.2565 5
81.3398 19
81.4232 34
81.5065 11
81.5899 23
81.6732 9
81.7565 21
81.8399 2
81.9232 22
82.0066 2
82.0899 3
82.1732 5
82.2566 8
82.3399 0
82.4233 10
82.5066 7
82.5899 17
82.6733 21
82.7566 10
82.8400 7
82.9233 14
83.0066 7
83.0900 19
83.1733 3
83.2567 9
83.3400 23
83.4233 15
83.5067 3
83.5900 12
83.6734 10
83.7567 8
83.8400 23
83.9234 39
84.0067 13
84.0901 4
84.1734 17
84.2567 14
84.3401 29
84.4234 12
84.5068 5
84.5901 9
84.6734 21
84.7568 19
84.8401 29
84.9235 10
85.0068 6
85.0901 18
85.1735 2
85.2568 11
85.3402 20
85.4235 26
85.5068 15
85.5902 14
85.6735 14
85.7569 22
85.8402 18
85.9235 18
86.0069 26
86.0902 16
86.1736 4
86.2569 9
86.3402 21
86.4236 4
86.5069 18
86.5903 14
86.6736 19
86.7569 29
86.8403 25
86.9236 22
87.0070 12
87.0903 30
87.1736 22
87.2570 6
87.3403 18
87.4237 20
87.5070 7
87.5903 6
87.6737 12
87.7570 22
87.8404 24
87.9237 18
88.0070 7
88.0904 2
88.1737 12
88.2571 17
88.3404 13
88.4237 21
88.5071 21
88.5904 8
88.6738 8
88.7571 6
88.8404 10
88.9238 5
89.0071 13
89.0905 10
89.1738 8
89.2571 27
89.3405 5
89.4238 3
89.5072 26
89.5905 13
89.6738 11
89.7572 22
89.8405 22
89.9239 17
90.0072 7
90.0905 5
90.1739 14
90.2572 6
90.3406 8
90.4239 31
90.5072 13
90.5906 13
90.6739 14
90.7573 19
90.8406 19
90.9239 8
91.0073 7
91.0906 28
91.1740 17
91.2573 14
91.3406 8
91.4240 29
91.5073 8
91.5907 17
91.6740 15
91.7573 16
91.8407 3
91.9240 17
92.0074 12
92.0907 14
92.1740 6
92.2574 19
92.3407 11
92.4241 14
92.5074 9
92.5907 28
92.6741 11
92.7574 3
92.8408 12
92.9241 7
93.0074 15
93.0908 14
93.1741 11
93.2575 18
93.3408 6
93.4241 7
93.5075 12
93.5908 18
93.6742 28
93.7575 19
93.8408 19
93.9242 23
94.0075 47
94.0909 19
94.1742 46
94.2575 19
94.3409 11
94.4242 17
94.5076 11
94.5909 11
94.6742 23
94.7576 38
94.8409 9
94.9243 8
95.0076 30
95.0909 13
95.1743 17
95.2576 10
95.3410 19
95.4243 33
95.5076 28
95.5910 14
95.6743 6
95.7577 21
95.8410 31
95.9243 13
96.0077 26
96.0910 16
96.1744 19
96.2577 39
96.3410 13
96.4244 16
96.5077 3
96.5911 15
96.6744 11
96.7577 15
96.8411 16
96.9244 17
97.0078 5
97.0911 30
97.1744 24
97.2578 34
97.3411 21
97.4245 28
97.5078 25
97.5911 10
97.6745 14
97.7578 19
97.8412 18
97.9245 12
98.0078 9
98.0912 17
98.1745 7
98.2579 25
98.3412 27
98.4245 15
98.5079 22
98.5912 16
98.6746 50
98.7579 21
98.8412 11
98.9246 18
99.0079 9
99.0913 8
99.1746 16
99.2579 29
99.3413 9
99.4246 11
99.5080 27
99.5913 10
99.6746 5
99.7580 7
99.8413 19
99.9247 9
100.0080 35
100.0913 8
100.1747 12
100.2580 29
100.3414 9
100.4247 33
100.5080 12
100.5914 6
100.6747 17
100.7581 17
100.8414 17
100.9247 19
101.0081 16
101.0914 7
101.1748 7
101.2581 8
101.3414 43
101.4248 9
101.5081 8
101.5915 10
101.6748 30
101.7581 18
101.8415 13
101.9248 33
102.0082 17
102.0915 7
102.1748 16
102.2582 9
102.3415 5
102.4249 12
102.5082 26
102.5915 23
102.6749 32
102.7582 20
102.8416 24
102.9249 7
103.0082 9
103.0916 13
103.1749 13
103.2583 6
103.3416 5
103.4249 23
103.5083 17
103.5916 10
103.6750 14
103.7583 28
103.8416 3
103.9250 16
104.0083 17
104.0917 12
104.1750 22
104.2583 7
104.3417 7
104.4250 16
104.5084 10
104.5917 30
104.6750 38
104.7584 10
104.8417 18
104.9251 15
105.0084 21
105.0917 13
105.1751 23
105.2584 32
105.3418 17
105.4251 13
105.5084 38
105.5918 10
105.6751 26
105.7585 15
105.8418 7
105.9251 19
106.0085 22
106.0918 20
106.1752 12
106.2585 12
106.3418 12
106.4252 16
106.5085 31
106.5919 34
106.6752 12
106.7585 30
106.8419 4
106.9252 31
107.0086 8
107.0919 21
107.1752 16
107.2586 6
107.3419 8
107.4253 12
107.5086 48
107.5919 28
107.6753 23
107.7586 22
107.8420 48
107.9253 20
108.0086 19
108.0920 8
108.1753 19
108.2587 39
108.3420 19
108.4253 11
108.5087 23
108.5920 7
108.6754 20
108.7587 7
108.8420 11
108.9254 8
109.0087 20
109.0921 7
109.1754 23
109.2587 12
109.3421 24
109.4254 20
109.5088 11
109.5921 11
109.6754 21
109.7588 14
109.8421 19
109.9255 16
110.0088 11
110.0921 24
110.1755 45
110.2588 10
110.3422 22
110.4255 19
110.5088 14
110.5922 8
110.6755 19
110.7589 15
110.8422 14
110.9255 23
111.0089 14
111.0922 12
111.1756 13
111.2589 16
111.3422 18
111.4256 6
111.5089 30
111.5923 38
111.6756 19
111.7589 20
111.8423 19
111.9256 17
112.0090 25
112.0923 43
112.1756 33
112.2590 56
112.3423 13
112.4257 18
112.5090 15
112.5923 26
112.6757 12
112.7590 16
112.8424 9
112.9257 11
113.0090 31
113.0924 39
113.1757 9
113.2591 40
113.3424 29
113.4257 41
113.5091 27
113.5924 33
113.6758 27
113.7591 21
113.8424 13
113.9258 20
114.0091 3
114.0925 31
114.1758 29
114.2591 24
114.3425 20
114.4258 21
114.5092 19
114.5925 39
114.6758 31
114.7592 19
114.8425 22
114.9259 27
115.0092 20
115.0925 38
115.1759 22
115.2592 21
115.3426 13
115.4259 37
115.5092 7
115.5926 13
115.6759 32
115.7593 17
115.8426 23
115.9259 9
116.0093 20
116.0926 29
116.1760 23
116.2593 27
116.3426 18
116.4260 21
116.5093 34
116.5927 9
116.6760 8
116.7593 19
116.8427 15
116.9260 20
117.0094 7
117.0927 7
117.1760 10
117.2594 23
117.3427 13
117.4261 32
117.5094 19
117.5927 16
117.6761 7
117.7594 5
117.8428 16
117.9261 13
118.0094 49
118.0928 14
118.1761 16
118.2595 15
118.3428 8
118.4261 28
118.5095 35
118.5928 15
118.6762 26
118.7595 46
118.8428 16
118.9262 10
119.0095 47
119.0929 11
119.1762 5
119.2595 24
119.3429 13
119.4262 11
119.5096 13
119.5929 14
119.6762 34
119.7596 17
119.8429 29
119.9263 68
120.0096 24
120.0929 19
120.1763 18
120.2596 35
120.3430 22
120.4263 37
120.5096 13
120.5930 38
120.6763 34
120.7597 56
120.8430 57
120.9263 43
121.0097 35
121.0930 36
121.1764 29
121.2597 39
121.3430 44
121.4264 30
121.5097 23
121.5931 33
121.6764 47
121.7597 27
121.8431 73
121.9264 55
122.0098 48
122.0931 39
122.1764 67
122.2598 75
122.3431 55
122.4265 51
122.5098 81
122.5931 80
122.6765 29
122.7598 44
122.8432 64
122.9265 23
123.0098 26
123.0932 43
123.1765 17
123.2599 37
123.3432 35
123.4265 46
123.5099 56
123.5932 62
123.6766 52
123.7599 40
123.8432 33
123.9266 46
124.0099 49
124.0933 81
124.1766 22
124.2599 30
124.3433 36
124.4266 31
124.5100 18
124.5933 9
124.6766 26
124.7600 16
124.8433 23
124.9267 26
125.0100 32
125.0933 54
125.1767 49
125.2600 83
125.3434 45
125.4267 24
125.5100 45
125.5934 27
125.6767 17
125.7601 35
125.8434 63
125.9267 40
126.0101 13
126.0934 19
126.1768 10
126.2601 30
126.3434 9
126.4268 16
126.5101 45
126.5935 24
126.6768 19
126.7601 32
126.8435 32
126.9268 24
127.0102 34
127.0935 55
127.1768 31
127.2602 30
127.3435 23
127.4269 7
127.5102 42
127.5935 12
127.6769 18
127.7602 13
127.8436 6
127.9269 11
128.0102 52
128.0936 21
128.1769 20
128.2603 38
128.3436 20
128.4269 21
128.5103 29
128.5936 42
128.6770 29
128.7603 20
128.8436 39
128.9270 21
129.0103 36
129.0937 36
129.1770 30
129.2603 18
129.3437 18
129.4270 28
129.5104 24
129.5937 16
129.6770 25
129.7604 35
129.8437 20
129.9271 29
130.0104 31
130.0937 29
130.1771 35
130.2604 43
130.3438 16
130.4271 33
130.5104 27
130.5938 50
130.6771 43
130.7605 35
130.8438 35
130.9271 70
131.0105 36
131.0938 79
131.1772 13
131.2605 19
131.3438 24
131.4272 24
131.5105 39
131.5939 26
131.6772 14
131.7605 26
131.8439 26
131.9272 26
132.0106 12
132.0939 16
132.1772 21
132.2606 33
132.3439 41
132.4273 38
132.5106 50
132.5939 39
132.6773 74
132.7606 41
132.8440 28
132.9273 23
133.0106 36
133.0940 23
133.1773 31
133.2607 30
133.3440 27
133.4273 21
133.5107 35
133.5940 43
133.6774 26
133.7607 40
133.8440 67
133.9274 41
134.0107 38
134.0941 19
134.1774 22
134.2607 31
134.3441 30
134.4274 18
134.5108 18
134.5941 17
134.6774 11
134.7608 32
134.8441 14
134.9275 9
135.0108 34
135.0941 30
135.1775 8
135.2608 31
135.3442 26
135.4275 32
135.5108 23
135.5942 15
135.6775 16
135.7609 20
135.8442 5
135.9275 19
136.0109 3
136.0942 13
136.1776 11
136.2609 26
136.3442 21
136.4276 25
136.5109 29
136.5943 9
136.6776 11
136.7609 18
136.8443 11
136.9276 16
137.0110 23
137.0943 7
137.1776 4
137.2610 42
137.3443 14
137.4277 18
137.5110 25
137.5943 12
137.6777 15
137.7610 7
137.8444 27
137.9277 35
138.0110 10
138.0944 18
138.1777 22
138.2611 27
138.3444 20
138.4277 22
138.5111 20
138.5944 16
138.6778 16
138.7611 29
138.8444 25
138.9278 25
139.0111 36
139.0945 33
139.1778 42
139.2611 25
139.3445 41
139.4278 51
139.5112 49
139.5945 37
139.6778 33
139.7612 30
139.8445 31
139.9279 20
140.0112 12
140.0945 17
140.1779 27
140.2612 30
140.3446 38
140.4279 19
140.5112 29
140.5946 27
140.6779 33
140.7613 49
140.8446 52
140.9279 48
141.0113 49
141.0946 39
141.1780 33
141.2613 70
141.3446 64
141.4280 63
141.5113 47
141.5947 32
141.6780 26
141.7613 16
141.8447 24
141.9280 33
142.0114 31
142.0947 27
142.1780 16
142.2614 44
142.3447 23
142.4281 57
142.5114 26
142.5947 55
142.6781 54
142.7614 49
142.8448 44
142.9281 52
143.0114 45
143.0948 49
143.1781 12
143.2615 13
143.3448 23
143.4281 11
143.5115 13
143.5948 9
143.6782 8
143.7615 17
143.8448 24
143.9282 20
144.0115 22
144.0949 42
144.1782 29
144.2615 36
144.3449 39
144.4282 54
144.5116 53
144.5949 31
144.6782 36
144.7616 41
144.8449 21
144.9283 13
145.0116 7
145.0949 43
145.1783 7
145.2616 19
145.3450 5
145.4283 4
145.5116 28
145.5950 26
145.6783 17
145.7617 20
145.8450 41
145.9283 42
146.0117 31
146.0950 48
146.1784 32
146.2617 37
146.3450 26
146.4284 15
146.5117 9
146.5951 28
146.6784 51
146.7617 7
146.8451 26
146.9284 19
147.0118 32
147.0951 23
147.1784 44
147.2618 28
147.3451 59
147.4285 31
147.5118 53
147.5951 25
147.6785 37
147.7618 34
147.8452 37
147.9285 37
148.0118 30
148.0952 26
148.1785 64
148.2619 54
148.3452 55
148.4285 82
148.5119 48
148.5952 47
148.6786 72
148.7619 75
148.8452 37
148.9286 41
149.0119 68
149.0953 49
149.1786 32
149.2619 38
149.3453 62
149.4286 39
149.5120 59
149.5953 68
149.6786 76
149.7620 76
149.8453 85
149.9287 83
150.0120 97
150.0953 91
150.1787 88
150.2620 71
150.3454 58
150.4287 33
150.5120 44
150.5954 27
150.6787 30
150.7621 27
150.8454 48
150.9287 45
151.0121 70
151.0954 78
151.1788 73
151.2621 92
151.3454 91
151.4288 93
151.5121 112
151.5955 69
151.6788 71
151.7621 64
151.8455 35
151.9288 26
152.0122 17
152.0955 20
152.1788 9
152.2622 37
152.3455 28
152.4289 37
152.5122 73
152.5955 78
152.6789 47
152.7622 61
152.8456 49
152.9289 55
153.0122 77
153.0956 53
153.1789 69
153.2623 38
153.3456 32
153.4289 25
153.5123 24
153.5956 9
153.6790 26
153.7623 16
153.8456 11
153.9290 25
154.0123 8
154.0957 10
154.1790 24
154.2623 43
154.3457 33
154.4290 33
154.5124 33
154.5957 20
154.6790 35
154.7624 21
154.8457 53
154.9291 51
155.0124 29
155.0957 26
155.1791 22
155.2624 19
155.3458 8
155.4291 14
155.5124 21
155.5958 32
155.6791 28
155.7625 20
155.8458 17
155.9291 27
156.0125 24
156.0958 9
156.1792 27
156.2625 42
156.3458 18
156.4292 21
156.5125 49
156.5959 52
156.6792 35
156.7625 59
156.8459 58
156.9292 50
157.0126 39
157.0959 48
157.1792 49
157.2626 62
157.3459 52
157.4293 40
157.5126 65
157.5959 32
157.6793 17
157.7626 53
157.8460 32
157.9293 38
158.0126 29
158.0960 20
158.1793 45
158.2627 73
158.3460 74
158.4293 98
158.5127 66
158.5960 59
158.6794 90
158.7627 76
158.8460 66
158.9294 48
159.0127 47
159.0961 39
159.1794 20
159.2627 27
159.3461 16
159.4294 24
159.5128 50
159.5961 73
159.6794 88
159.7628 89
159.8461 105
159.9295 81
160.0128 129
160.0961 67
160.1795 59
160.2628 68
160.3462 39
160.4295 61
160.5128 27
160.5962 30
160.6795 25
160.7629 39
160.8462 56
160.9295 26
161.0129 48
161.0962 52
161.1796 56
161.2629 56
161.3462 54
161.4296 72
161.5129 57
161.5963 40
161.6796 49
161.7629 41
161.8463 37
161.9296 33
162.0130 7
162.0963 9
162.1796 38
162.2630 15
162.3463 37
162.4297 22
162.5130 30
162.5963 26
162.6797 41
162.7630 44
162.8464 48
162.9297 51
163.0130 47
163.0964 34
163.1797 20
163.2631 20
163.3464 13
163.4297 22
163.5131 19
163.5964 15
163.6798 14
163.7631 9
163.8464 12
163.9298 25
164.0131 12
164.0965 19
164.1798 6
164.2631 14
164.3465 7
164.4298 21
164.5132 28
164.5965 17
164.6798 17
164.7632 22
164.8465 6
164.9299 13
165.0132 4
165.0965 18
165.1799 7
165.2632 31
165.3466 30
165.4299 35
165.5132 24
165.5966 24
165.6799 24
165.7633 29
165.8466 55
165.9299 56
166.0133 22
166.0966 34
166.1800 36
166.2633 49
166.3466 34
166.4300 29
166.5133 36
166.5967 34
166.6800 55
166.7633 45
166.8467 56
166.9300 68
167.0134 59
167.0967 48
167.1800 107
167.2634 56
167.3467 84
167.4301 63
167.5134 70
167.5967 43
167.6801 36
167.7634 58
167.8468 37
167.9301 32
168.0134 36
168.0968 46
168.1801 44
168.2635 52
168.3468 69
168.4301 90
168.5135 97
168.5968 83
168.6802 65
168.7635 57
168.8468 91
168.9302 63
169.0135 57
169.0969 26
169.1802 36
169.2635 20
169.3469 31
169.4302 17
169.5136 33
169.5969 28
169.6802 42
169.7636 62
169.8469 53
169.9303 47
170.0136 82
170.0969 67
170.1803 68
170.2636 64
170.3470 54
170.4303 36
170.5136 31
170.5970 19
170.6803 26
170.7637 25
170.8470 16
170.9303 16
171.0137 20
171.0970 11
171.1804 17
171.2637 21
171.3470 30
171.4304 34
171.5137 34
171.5971 41
171.6804 29
171.7637 12
171.8471 46
171.9304 11
172.0138 17
172.0971 21
172.1804 22
172.2638 17
172.3471 19
172.4305 25
172.5138 20
172.5971 22
172.6805 25
172.7638 29
172.8472 30
172.9305 40
173.0138 14
173.0972 45
173.1805 39
173.2639 22
173.3472 29
173.4305 27
173.5139 44
173.5972 30
173.6806 48
173.7639 58
173.8472 52
173.9306 39
174.0139 22
174.0973 31
174.1806 61
174.2639 70
174.3473 66
174.4306 53
174.5140 50
174.5973 57
174.6806 51
174.7640 38
174.8473 53
174.9307 49
175.0140 62
175.0973 41
175.1807 48
175.2640 62
175.3474 42
175.4307 44
175.5140 75
175.5974 96
175.6807 63
175.7641 85
175.8474 61
175.9307 95
176.0141 64
176.0974 57
176.1808 53
176.2641 36
176.3474 35
176.4308 41
176.5141 48
176.5975 41
176.6808 33
176.7641 39
176.8475 44
176.9308 61
177.0142 51
177.0975 65
177.1808 82
177.2642 66
177.3475 81
177.4309 70
177.5142 59
177.5975 37
177.6809 52
177.7642 31
177.8476 32
177.9309 28
178.0142 23
178.0976 25
178.1809 27
178.2643 37
178.3476 54
178.4309 45
178.5143 70
178.5976 48
178.6810 39
178.7643 64
178.8476 19
178.9310 25
179.0143 13
179.0977 11
179.1810 17
179.2643 13
179.3477 24
179.4310 16
179.5144 30
179.5977 19
179.6810 45
179.7644 42
179.8477 36
179.9311 48
180.0144 55
180.0977 46
180.1811 38
180.2644 34
180.3478 43
180.4311 26
180.5144 24
180.5978 40
180.6811 5
180.7645 23
180.8478 11
180.9311 25
181.0145 19
181.0978 18
181.1812 47
181.2645 29
181.3478 18
181.4312 28
181.5145 24
181.5979 33
181.6812 28
181.7645 8
181.8479 34
181.9312 25
182.0146 12
182.0979 18
182.1812 28
182.2646 27
182.3479 32
182.4313 35
182.5146 41
182.5979 41
182.6813 40
182.7646 29
182.8480 56
182.9313 25
183.0146 61
183.0980 43
183.1813 44
183.2647 61
183.3480 57
183.4313 45
183.5147 36
183.5980 49
183.6814 85
183.7647 52
183.8480 62
183.9314 48
184.0147 66
184.0981 63
184.1814 58
184.2647 90
184.3481 59
184.4314 92
184.5148 87
184.5981 67
184.6814 97
184.7648 72
184.8481 70
184.9315 54
185.0148 64
185.0981 59
185.1815 71
185.2648 81
185.3482 69
185.4315 94
185.5148 100
185.5982 132
185.6815 123
185.7649 102
185.8482 147
185.9315 110
186.0149 111
186.0982 121
186.1816 80
186.2649 42
186.3482 39
186.4316 38
186.5149 60
186.5983 73
186.6816 61
186.7649 49
186.8483 70
186.9316 99
187.0150 116
187.0983 112
187.1816 164
187.2650 97
187.3483 141
187.4317 62
187.5150 84
187.5983 79
187.6817 61
187.7650 34
187.8484 35
187.9317 46
188.0150 36
188.0984 32
188.1817 48
188.2651 55
188.3484 74
188.4317 99
188.5151 61
188.5984 76
188.6818 96
188.7651 69
188.8484 65
188.9318 50
189.0151 35
189.0985 34
189.1818 24
189.2651 7
189.3485 5
189.4318 37
189.5152 18
189.5985 41
189.6818 22
189.7652 42
189.8485 67
189.9319 27
190.0152 30
190.0985 23
190.1819 32
190.2652 42
190.3486 5
190.4319 22
190.5152 15
190.5986 23
190.6819 22
190.7653 35
190.8486 38
190.9319 21
191.0153 38
191.0986 35
191.1820 38
191.2653 31
191.3486 55
191.4320 80
191.5153 87
191.5987 55
191.6820 58
191.7653 77
191.8487 113
191.9320 80
192.0154 94
192.0987 104
192.1820 76
192.2654 106
192.3487 75
192.4321 77
192.5154 64
192.5987 102
192.6821 72
192.7654 92
192.8488 94
192.9321 157
193.0154 115
193.0988 153
193.1821 173
193.2655 177
193.3488 174
193.4321 133
193.5155 144
193.5988 112
193.6822 116
193.7655 87
193.8488 55
193.9322 80
194.0155 123
194.0989 161
194.1822 165
194.2655 193
194.3489 212
194.4322 257
194.5156 268
194.5989 212
194.6822 224
194.7656 205
194.8489 120
194.9323 127
195.0156 108
195.0989 63
195.1823 66
195.2656 53
195.3490 58
195.4323 85
195.5156 87
195.5990 121
195.6823 137
195.7657 221
195.8490 169
195.9323 223
196.0157 213
196.0990 174
196.1824 130
196.2657 130
196.3490 69
196.4324 65
196.5157 83
196.5991 20
196.6824 14
196.7657 20
196.8491 26
196.9324 77
197.0158 55
197.0991 76
197.1824 98
197.2658 83
197.3491 92
197.4325 92
197.5158 93
197.5991 88
197.6825 70
197.7658 68
197.8492 69
197.9325 26
198.0158 30
198.0992 31
198.1825 16
198.2659 15
198.3492 19
198.4325 65
198.5159 17
198.5992 30
198.6826 29
198.7659 20
198.8492 25
198.9326 25
199.0159 26
199.0993 70
199.1826 74
199.2659 52
199.3493 53
199.4326 40
199.5160 66
199.5993 63
199.6826 39
199.7660 16
199.8493 35
199.9327 21
200.0160 17
200.0993 41
200.1827 54
200.2660 31
200.3494 74
200.4327 66
200.5160 85
200.5994 93
200.6827 80
200.7661 71
200.8494 94
200.9327 76
201.0161 61
201.0994 53
201.1828 84
201.2661 85
201.3494 85
201.4328 89
201.5161 123
201.5995 98
201.6828 122
201.7661 120
201.8495 130
201.9328 93
202.0162 93
202.0995 67
202.1828 83
202.2662 85
202.3495 68
202.4329 49
202.5162 81
202.5995 83
202.6829 108
202.7662 111
202.8496 143
202.9329 151
203.0162 164
203.0996 174
203.1829 149
203.2663 120
203.3496 91
203.4329 89
203.5163 80
203.5996 67
203.6830 34
203.7663 41
203.8496 41
203.9330 43
204.0163 95
204.0997 122
204.1830 141
204.2663 167
204.3497 203
204.4330 247
204.5164 169
204.5997 151
204.6830 154
204.7664 132
204.8497 52
204.9331 51
205.0164 34
205.0997 33
205.1831 25
205.2664 28
205.3498 65
205.4331 64
205.5164 72
205.5998 99
205.6831 130
205.7665 121
205.8498 138
205.9331 118
206.0165 80
206.0998 104
206.1832 112
206.2665 42
206.3498 37
206.4332 21
206.5165 14
206.5999 24
206.6832 10
206.7665 29
206.8499 30
206.9332 44
207.0166 36
207.0999 32
207.1832 45
207.2666 36
207.3499 45
207.4333 44
207.5166 19
207.5999 5
207.6833 40
207.7666 44
207.8500 37
207.9333 40
208.0166 29
208.1000 69
208.1833 30
208.2667 36
208.3500 73
208.4333 46
208.5167 40
208.6000 22
208.6834 26
208.7667 37
208.8500 43
208.9334 40
209.0167 47
209.1001 33
209.1834 47
209.2667 47
209.3501 69
209.4334 89
209.5168 95
209.6001 104
209.6834 113
209.7668 77
209.8501 126
209.9335 125
210.0168 128
210.1001 139
210.1835 155
210.2668 127
210.3502 124
210.4335 153
210.5168 149
210.6002 79
210.6835 100
210.7669 132
210.8502 113
210.9335 129
211.0169 186
211.1002 167
211.1836 233
211.2669 253
211.3502 267
211.4336 246
211.5169 289
211.6003 257
211.6836 266
211.7669 250
211.8503 179
211.9336 211
212.0170 160
212.1003 112
212.1836 120
212.2670 112
212.3503 113
212.4337 183
212.5170 187
212.6003 246
212.6837 276
212.7670 276
212.8504 300
212.9337 299
213.0170 355
213.1004 312
213.1837 232
213.2671 230
213.3504 175
213.4337 155
213.5171 69
213.6004 38
213.6838 81
213.7671 91
213.8504 88
213.9338 106
214.0171 159
214.1005 207
214.1838 220
214.2671 174
214.3505 196
214.4338 208
214.5172 240
214.6005 110
214.6838 109
214.7672 61
214.8505 28
214.9339 44
215.0172 18
215.1005 26
215.1839 67
215.2672 56
215.3506 56
215.4339 54
215.5172 70
215.6006 77
215.6839 61
215.7673 57
215.8506 51
215.9339 32
216.0173 49
216.1006 21
216.1840 47
216.2673 18
216.3506 13
216.4340 38
216.5173 57
216.6007 55
216.6840 44
216.7673 39
216.8507 46
216.9340 48
217.0174 41
217.1007 76
217.1840 27
217.2674 46
217.3507 25
217.4341 69
217.5174 78
217.6007 80
217.6841 69
217.7674 67
217.8508 81
217.9341 83
218.0174 84
218.1008 120
218.1841 122
218.2675 129
218.3508 132
218.4341 131
218.5175 151
218.6008 184
218.6842 174
218.7675 180
218.8508 176
218.9342 145
219.0175 155
219.1009 140
219.1842 201
219.2675 105
219.3509 135
219.4342 129
219.5176 150
219.6009 200
219.6842 219
219.7676 218
219.8509 260
219.9343 343
220.0176 351
220.1009 340
220.1843 278
220.2676 245
220.3510 231
220.4343 229
220.5176 219
220.6010 187
220.6843 148
220.7677 134
220.8510 147
220.9343 144
221.0177 220
221.1010 270
221.1844 275
221.2677 332
221.3510 361
221.4344 397
221.5177 399
221.6011 326
221.6844 325
221.7677 354
221.8511 233
221.9344 184
222.0178 110
222.1011 82
222.1844 123
222.2678 97
222.3511 146
222.4345 136
222.5178 192
222.6011 265
222.6845 264
222.7678 257
222.8512 344
222.9345 243
223.0178 275
223.1012 239
223.1845 226
223.2679 275
223.3512 215
223.4345 150
223.5179 92
223.6012 52
223.6846 42
223.7679 19
223.8512 19
223.9346 61
224.0179 88
224.1013 90
224.1846 126
224.2679 166
224.3513 137
224.4346 177
224.5180 151
224.6013 153
224.6846 131
224.7680 79
224.8513 83
224.9347 48
225.0180 43
225.1013 33
225.1847 23
225.2680 44
225.3514 23
225.4347 38
225.5180 34
225.6014 45
225.6847 36
225.7681 39
225.8514 44
225.9347 25
226.0181 41
226.1014 32
226.1848 46
226.2681 91
226.3514 95
226.4348 109
226.5181 122
226.6015 123
226.6848 145
226.7681 91
226.8515 107
226.9348 93
227.0182 105
227.1015 91
227.1848 96
227.2682 93
227.3515 131
227.4349 159
227.5182 138
227.6015 129
227.6849 171
227.7682 237
227.8516 204
227.9349 178
228.0182 223
228.1016 219
228.1849 259
228.2683 240
228.3516 339
228.4349 323
228.5183 336
228.6016 378
228.6850 343
228.7683 307
228.8516 288
228.9350 252
229.0183 276
229.1017 217
229.1850 200
229.2683 170
229.3517 189
229.4350 195
229.5184 248
229.6017 272
229.6850 336
229.7684 390
229.8517 447
229.9351 508
230.0184 497
230.1017 446
230.1851 474
230.2684 379
230.3518 387
230.4351 262
230.5184 243
230.6018 191
230.6851 116
230.7685 110
230.8518 127
230.9351 151
231.0185 200
231.1018 264
231.1852 399
231.2685 414
231.3518 411
231.4352 444
231.5185 377
231.6019 399
231.6852 368
231.7685 278
231.8519 259
231.9352 162
232.0186 103
232.1019 77
232.1852 42
232.2686 39
232.3519 59
232.4353 101
232.5186 109
232.6019 163
232.6853 164
232.7686 189
232.8520 210
232.9353 188
233.0186 140
233.1020 124
233.1853 122
233.2687 106
233.3520 97
233.4353 48
233.5187 38
233.6020 43
233.6854 19
233.7687 39
233.8520 27
233.9354 16
234.0187 18
234.1021 31
234.1854 19
234.2687 27
234.3521 68
234.4354 57
234.5188 67
234.6021 88
234.6854 122
234.7688 101
234.8521 164
234.9355 161
235.0188 151
235.1021 138
235.1855 153
235.2688 145
235.3522 123
235.4355 193
235.5188 215
235.6022 195
235.6855 243
235.7689 237
235.8522 223
235.9355 236
236.0189 188
236.1022 198
236.1856 245
236.2689 207
236.3522 217
236.4356 229
236.5189 275
236.6023 267
236.6856 393
236.7689 393
236.8523 446
236.9356 513
237.0190 568
237.1023 605
237.1856 491
237.2690 538
237.3523 416
237.4357 362
237.5190 289
237.6023 233
237.6857 212
237.7690 178
237.8524 222
237.9357 239
238.0190 304
238.1024 447
238.1857 505
238.2691 630
238.3524 652
238.4357 671
238.5191 692
238.6024 730
238.6858 556
238.7691 487
238.8524 379
238.9358 263
239.0191 215
239.1025 131
239.1858 138
239.2691 78
239.3525 159
239.4358 203
239.5192 298
239.6025 400
239.6858 466
239.7692 537
239.8525 548
239.9359 537
240.0192 519
240.1025 441
240.1859 298
240.2692 222
240.3526 185
240.4359 78
240.5192 57
240.6026 34
240.6859 46
240.7693 62
240.8526 88
240.9359 202
241.0193 217
241.1026 209
241.1860 252
241.2693 220
241.3526 223
241.4360 215
241.5193 180
241.6027 126
241.6860 120
241.7693 125
241.8527 118
241.9360 72
242.0194 70
242.1027 90
242.1860 73
242.2694 83
242.3527 44
242.4361 30
242.5194 48
242.6027 27
242.6861 19
242.7694 27
242.8528 87
242.9361 90
243.0194 174
243.1028 172
243.1861 209
243.2695 246
243.3528 291
243.4361 201
243.5195 213
243.6028 230
243.6862 246
243.7695 192
243.8528 126
243.9362 155
244.0195 145
244.1029 137
244.1862 169
244.2695 185
244.3529 240
244.4362 264
244.5196 313
244.6029 363
244.6862 352
244.7696 411
244.8529 397
244.9363 370
245.0196 384
245.1029 396
245.1863 420
245.2696 448
245.3530 457
245.4363 438
245.5196 513
245.6030 513
245.6863 531
245.7697 496
245.8530 419
245.9363 454
246.0197 402
246.1030 371
246.1864 387
246.2697 402
246.3530 406
246.4364 508
246.5197 600
246.6031 616
246.6864 723
246.7697 735
246.8531 804
246.9364 777
247.0198 829
247.1031 825
247.1864 690
247.2698 573
247.3531 425
247.4365 436
247.5198 336
247.6031 312
247.6865 302
247.7698 335
247.8532 473
247.9365 523
248.0198 596
248.1032 767
248.1865 758
248.2699 818
248.3532 754
248.4365 712
248.5199 693
248.6032 549
248.6866 415
248.7699 317
248.8532 208
248.9366 192
249.0199 111
249.1033 97
249.1866 156
249.2699 259
249.3533 285
249.4366 301
249.5200 388
249.6033 451
249.6866 452
249.7700 471
249.8533 389
249.9367 329
250.0200 238
250.1033 193
250.1867 103
250.2700 66
250.3534 46
250.4367 39
250.5200 34
250.6034 65
250.6867 72
250.7701 104
250.8534 158
250.9367 119
251.0201 97
251.1034 140
251.1868 65
251.2701 79
251.3534 34
251.4368 60
251.5201 69
251.6035 75
251.6868 72
251.7701 130
251.8535 125
251.9368 121
252.0202 132
252.1035 157
252.1868 125
252.2702 89
252.3535 65
252.4369 79
252.5202 70
252.6035 79
252.6869 85
252.7702 108
252.8536 71
252.9369 135
253.0202 125
253.1036 212
253.1869 229
253.2703 235
253.3536 259
253.4369 304
253.5203 295
253.6036 271
253.6870 342
253.7703 325
253.8536 456
253.9370 455
254.0203 472
254.1037 509
254.1870 496
254.2703 510
254.3537 376
254.4370 379
254.5204 412
254.6037 321
254.6870 335
254.7704 332
254.8537 345
254.9371 454
255.0204 482
255.1037 584
255.1871 802
255.2704 795
255.3538 955
255.4371 970
255.5204 1022
255.6038 1080
255.6871 1071
255.7705 928
255.8538 765
255.9371 647
256.0205 471
256.1038 462
256.1872 414
256.2705 420
256.3538 573
256.4372 707
256.5205 697
256.6039 1228
256.6872 1194
256.7705 1276
256.8539 1547
256.9372 1362
257.0206 1271
257.1039 1164
257.1872 915
257.2706 684
257.3539 557
257.4373 321
257.5206 211
257.6039 208
257.6873 170
257.7706 290
257.8540 395
257.9373 592
258.0206 866
258.1040 818
258.1873 858
258.2707 885
258.3540 775
258.4373 716
258.5207 534
258.6040 345
258.6874 264
258.7707 187
258.8540 208
258.9374 146
259.0207 127
259.1041 94
259.1874 66
259.2707 64
259.3541 77
259.4374 116
259.5208 165
259.6041 168
259.6874 200
259.7708 225
259.8541 267
259.9375 315
260.0208 340
260.1041 407
260.1875 409
260.2708 397
260.3542 472
260.4375 341
260.5208 334
260.6042 288
260.6875 198
260.7709 169
260.8542 135
260.9375 96
261.0209 113
261.1042 103
261.1876 92
261.2709 163
261.3542 200
261.4376 306
261.5209 348
261.6043 445
261.6876 507
261.7709 570
261.8543 609
261.9376 696
262.0210 833
262.1043 743
262.1876 668
262.2710 737
262.3543 777
262.4377 718
262.5210 718
262.6043 719
262.6877 762
262.7710 760
262.8544 718
262.9377 790
263.0210 742
263.1044 716
263.1877 918
263.2711 928
263.3544 1070
263.4377 1207
263.5211 1399
263.6044 1631
263.6878 1861
263.7711 1922
263.8544 1999
263.9378 2054
264.0211 2014
264.1045 1776
264.1878 1609
264.2711 1470
264.3545 1249
264.4378 1108
264.5212 934
264.6045 774
264.6878 986
264.7712 1154
264.8545 1439
264.9379 1807
265.0212 2100
265.1045 2354
265.1879 2619
265.2712 2753
265.3546 2768
265.4379 2507
265.5212 2208
265.6046 1669
265.6879 1432
265.7713 1070
265.8546 770
265.9379 552
266.0213 484
266.1046 528
266.1880 731
266.2713 916
266.3546 1315
266.4380 1557
266.5213 1749
266.6047 1855
266.6880 2022
266.7713 1768
266.8547 1584
266.9380 1283
267.0214 985
267.1047 699
267.1880 399
267.2714 241
267.3547 90
267.4381 66
267.5214 94
267.6047 109
267.6881 262
267.7714 378
267.8548 450
267.9381 558
268.0214 587
268.1048 543
268.1881 524
268.2715 489
268.3548 453
268.4381 460
268.5215 409
268.6048 436
268.6882 460
268.7715 404
268.8548 358
268.9382 385
269.0215 350
269.1049 248
269.1882 177
269.2715 141
269.3549 110
269.4382 92
269.5216 139
269.6049 193
269.6882 363
269.7716 484
269.8549 632
269.9383 933
270.0216 935
270.1049 1022
270.1883 987
270.2716 1189
270.3550 1142
270.4383 1113
270.5216 1058
270.6050 1107
270.6883 993
270.7717 932
270.8550 975
270.9383 1116
271.0217 1204
271.1050 1213
271.1884 1303
271.2717 1312
271.3550 1409
271.4384 1479
271.5217 1400
271.6051 1554
271.6884 1696
271.7717 1641
271.8551 1962
271.9384 1995
272.0218 2221
272.1051 2278
272.1884 2545
272.2718 2641
272.3551 2756
272.4385 2662
272.5218 2439
272.6051 2413
272.6885 2177
272.7718 1794
272.8552 1676
272.9385 1547
273.0218 1420
273.1052 1474
273.1885 1779
273.2719 2056
273.3552 2417
273.4385 2800
273.5219 3382
273.6052 3713
273.6886 4134
273.7719 3997
273.8552 3847
273.9386 3507
274.0219 3036
274.1053 2417
274.1886 2018
274.2719 1511
274.3553 1149
274.4386 939
274.5220 999
274.6053 1172
274.6886 1529
274.7720 2037
274.8553 2560
274.9387 2901
275.0220 3436
275.1053 3559
275.1887 3466
275.2720 3210
275.3554 2984
275.4387 2511
275.5220 2024
275.6054 1348
275.6887 975
275.7721 553
275.8554 391
275.9387 287
276.0221 383
276.1054 550
276.1888 766
276.2721 1132
276.3554 1319
276.4388 1474
276.5221 1643
276.6055 1569
276.6888 1402
276.7721 1302
276.8555 1044
276.9388 889
277.0222 600
277.1055 449
277.1888 317
277.2722 248
277.3555 137
277.4389 107
277.5222 91
277.6055 71
277.6889 35
277.7722 58
277.8556 102
277.9389 105
278.0222 154
278.1056 289
278.1889 430
278.2723 553
278.3556 757
278.4389 868
278.5223 954
278.6056 1050
278.6890 1003
278.7723 1080
278.8556 1037
278.9390 966
279.0223 896
279.1057 934
279.1890 1037
279.2723 1088
279.3557 1138
279.4390 1413
279.5224 1505
279.6057 1659
279.6890 1882
279.7724 1940
279.8557 2049
279.9391 2154
280.0224 2260
280.1057 2228
280.1891 2519
280.2724 2649
280.3558 3022
280.4391 3414
280.5224 3493
280.6058 4155
280.6891 4422
280.7725 4484
280.8558 4621
280.9391 4686
281.0225 4249
281.1058 4058
281.1892 3553
281.2725 3299
281.3558 3081
281.4392 2864
281.5225 2899
281.6059 3235
281.6892 3855
281.7725 4566
281.8559 5293
281.9392 6256
282.0226 6994
282.1059 7472
282.1892 7665
282.2726 7464
282.3559 7139
282.4393 6291
282.5226 5322
282.6059 4192
282.6893 3402
282.7726 2391
282.8560 2090
282.9393 2048
283.0226 2466
283.1060 3213
283.1893 3770
283.2727 5273
283.3560 6449
283.4393 7249
283.5227 7787
283.6060 7522
283.6894 7229
283.7727 6695
283.8560 5611
283.9394 4601
284.0227 3224
284.1061 2212
284.1894 1385
284.2727 812
284.3561 647
284.4394 795
284.5228 1262
284.6061 1993
284.6894 2584
284.7728 3365
284.8561 3685
284.9395 4007
285.0228 3962
285.1061 3912
285.1895 3273
285.2728 2547
285.3562 1813
285.4395 1269
285.5228 817
285.6062 463
285.6895 214
285.7729 186
285.8562 183
285.9395 298
286.0229 404
286.1062 456
286.1896 427
286.2729 563
286.3562 374
286.4396 294
286.5229 256
286.6063 280
286.6896 345
286.7729 478
286.8563 646
286.9396 893
287.0230 1163
287.1063 1515
287.1896 1806
287.2730 1939
287.3563 2014
287.4397 1961
287.5230 2094
287.6063 2106
287.6897 2222
287.7730 2256
287.8564 2529
287.9397 2579
288.0230 2900
288.1064 2995
288.1897 3458
288.2731 3289
288.3564 3726
288.4397 4179
288.5231 4595
288.6064 5206
288.6898 5818
288.7731 6597
288.8564 8034
288.9398 8760
289.0231 10040
289.1065 10684
289.1898 11222
289.2731 11536
289.3565 11680
289.4398 11019
289.5232 10245
289.6065 8893
289.6898 7933
289.7732 7023
289.8565 6339
289.9399 6707
290.0232 7699
290.1065 9590
290.1899 11672
290.2732 14330
290.3566 17040
290.4399 19687
290.5232 20776
290.6066 21958
290.6899 21823
290.7733 20411
290.8566 17838
290.9399 15114
291.0233 11564
291.1066 8940
291.1900 6883
291.2733 5786
291.3566 5647
291.4400 6931
291.5233 9157
291.6067 12027
291.6900 16115
291.7733 18333
291.8567 21065
291.9400 23009
292.0234 22812
292.1067 21719
292.1900 19705
292.2734 16605
292.3567 12959
292.4401 8887
292.5234 5709
292.6067 3352
292.6901 2076
292.7734 1860
292.8568 2758
292.9401 4424
293.0234 6837
293.1068 9056
293.1901 12095
293.2735 14442
293.3568 15352
293.4401 15862
293.5235 14663
293.6068 13077
293.6902 11326
293.7735 8806
293.8568 6460
293.9402 3866
294.0235 2435
294.1069 1220
294.1902 628
294.2735 676
294.3569 867
294.4402 1326
294.5236 1614
294.6069 2015
294.6902 2042
294.7736 2278
294.8569 2300
294.9403 2505
295.0236 2910
295.1069 3268
295.1903 4081
295.2736 5352
295.3570 6717
295.4403 8171
295.5236 8587
295.6070 9583
295.6903 9964
295.7737 9669
295.8570 9018
295.9403 8055
296.0237 7313
296.1070 6707
296.1904 6416
296.2737 6851
296.3570 8215
296.4404 10137
296.5237 12928
296.6071 16068
296.6904 19493
296.7737 23257
296.8571 27073
296.9404 31405
297.0238 34003
297.1071 37725
297.1904 41053
297.2738 43916
297.3571 46040
297.4405 50563
297.5238 52969
297.6071 55496
297.6905 57571
297.7738 58602
297.8572 58046
297.9405 58229
298.0238 58110
298.1072 57683
298.1905 58768
298.2739 59486
298.3572 65456
298.4405 74640
298.5239 83016
298.6072 97634
298.6906 114645
298.7739 130315
298.8572 144882
298.9406 159896
299.0239 168818
299.1073 172210
299.1906 166850
299.2739 160293
299.3573 147966
299.4406 132743
299.5240 118265
299.6073 108073
299.6906 104799
299.7740 107641
299.8573 119812
299.9407 142341
300.0240 175298
300.1073 213251
300.1907 256427
300.2740 298289
300.3574 329183
300.4407 351655
300.5240 355550
300.6074 344211
300.6907 314218
300.7741 278515
300.8574 234735
300.9407 192375
301.0241 159682
301.1074 141132
301.1908 140922
301.2741 158055
301.3574 199218
301.4408 256445
301.5241 326331
301.6075 399291
301.6908 465618
301.7741 519841
301.8575 548257
301.9408 548593
302.0242 524488
302.1075 469743
302.1908 396187
302.2742 319573
302.3575 248348
302.4409 187599
302.5242 154917
302.6075 150815
302.6909 175782
302.7742 228215
302.8576 309905
302.9409 408826
303.0242 513998
303.1076 590107
303.1909 644994
303.2743 668469
303.3576 663206
303.4409 619645
303.5243 538127
303.6076 452548
303.6910 343867
303.7743 247611
303.8576 176210
303.9410 136436
304.0243 129410
304.1077 156309
304.1910 219315
304.2743 315812
304.3577 429507
304.4410 534013
304.5244 620068
304.6077 674814
304.6910 690189
304.7744 670066
304.8577 612653
304.9411 535906
305.0244 427105
305.1077 313032
305.1911 209849
305.2744 141461
305.3578 98206
305.4411 88627
305.5244 113712
305.6078 172021
305.6911 258957
305.7745 362526
305.8578 465865
305.9411 538823
306.0245 581880
306.1078 594742
306.1912 567525
306.2745 500429
306.3578 415302
306.4412 313248
306.5245 216712
306.6079 135971
306.6912 80263
306.7745 50883
306.8579 47627
306.9412 68391
307.0246 113208
307.1079 177632
307.1912 257379
307.2746 326554
307.3579 376514
307.4413 406080
307.5246 411581
307.6079 379260
307.6913 328375
307.7746 263441
307.8580 195608
307.9413 130947
308.0246 79054
308.1080 41328
308.1913 20912
308.2747 17347
308.3580 29782
308.4413 55117
308.5247 90394
308.6080 129756
308.6914 167666
308.7747 195535
308.8580 209638
308.9414 205271
309.0247 191516
309.1081 162122
309.1914 129795
309.2747 96477
309.3581 61456
309.4414 35346
309.5248 16149
309.6081 6208
309.6914 4019
309.7748 9551
309.8581 20023
309.9415 35343
310.0248 49931
310.1081 62590
310.1915 72890
310.2748 76713
310.3582 74061
310.4415 67565
310.5248 55850
310.6082 44393
310.6915 32410
310.7749 21522
310.8582 13334
310.9415 7109
311.0249 4258
311.1082 3905
311.1916 4869
311.2749 6883
311.3582 9438
311.4416 12041
311.5249 13517
311.6083 14017
311.6916 14033
311.7749 13072
311.8583 11469
311.9416 10076
312.0250 9386
312.1083 8587
312.1916 8355
312.2750 8370
312.3583 8827
312.4417 9068
312.5250 8534
312.6083 8120
312.6917 7026
312.7750 5762
312.8584 4318
312.9417 2784
313.0250 1670
313.1084 1029
313.1917 1001
313.2751 1793
313.3584 2904
313.4417 4726
313.5251 6940
313.6084 8964
313.6918 10230
313.7751 11063
313.8584 12152
313.9418 11831
314.0251 11230
314.1085 10223
314.1918 10413
314.2751 11124
314.3585 10268
314.4418 10519
314.5252 11875
314.6085 11028
314.6918 11401
314.7752 12039
314.8585 12078
314.9419 11954
315.0252 11842
315.1085 10879
315.1919 11087
315.2752 10491
315.3586 10922
315.4419 12901
315.5252 14053
315.6086 15466
315.6919 17786
315.7753 18738
315.8586 21807
315.9419 22831
316.0253 22824
316.1086 21851
316.1920 19402
316.2753 17079
316.3586 13453
316.4420 10659
316.5253 8146
316.6087 7203
316.6920 6227
316.7753 7236
316.8587 8627
316.9420 11490
317.0254 14491
317.1087 18014
317.1920 19993
317.2754 21783
317.3587 23078
317.4421 21924
317.5254 19893
317.6087 16987
317.6921 13695
317.7754 9934
317.8588 6590
317.9421 4098
318.0254 2594
318.1088 2254
318.1921 2864
318.2755 4402
318.3588 6638
318.4421 9298
318.5255 11405
318.6088 12903
318.6922 13665
318.7755 13511
318.8588 12718
318.9422 10713
319.0255 8718
319.1089 6337
319.1922 4074
319.2755 2375
319.3589 1062
319.4422 431
319.5256 345
319.6089 716
319.6922 1561
319.7756 2304
319.8589 3278
319.9423 3829
320.0256 4361
320.1089 4171
320.1923 4056
320.2756 3409
320.3590 2807
320.4423 2194
320.5256 1513
320.6090 1144
320.6923 721
320.7757 626
320.8590 704
320.9423 911
321.0257 1044
321.1090 1173
321.1924 1178
321.2757 1034
321.3590 836
321.4424 603
321.5257 401
321.6091 248
321.6924 215
321.7757 303
321.8591 545
321.9424 757
322.0258 1227
322.1091 1597
322.1924 1765
322.2758 2129
322.3591 2231
322.4425 2270
322.5258 2486
322.6091 2216
322.6925 2104
322.7758 1978
322.8592 1961
322.9425 2097
323.0258 2239
323.1092 2412
323.1925 2576
323.2759 2681
323.3592 2843
323.4425 2753
323.5259 2751
323.6092 2533
323.6926 2556
323.7759 2623
323.8592 2687
323.9426 3022
324.0259 3234
324.1093 3817
324.1926 4355
324.2759 4803
324.3593 5269
324.4426 5449
324.5260 5449
324.6093 5361
324.6926 4704
324.7760 4176
324.8593 3440
324.9427 2750
325.0260 2340
325.1093 2088
325.1927 1884
325.2760 2184
325.3594 2835
325.4427 3588
325.5260 4665
325.6094 5484
325.6927 6017
325.7761 6536
325.8594 6737
325.9427 6625
326.0261 5982
326.1094 5060
326.1928 4126
326.2761 3021
326.3594 1893
326.4428 1294
326.5261 858
326.6095 1042
326.6928 1238
326.7761 1817
326.8595 2419
326.9428 3245
327.0262 3951
327.1095 4750
327.1928 5040
327.2762 4997
327.3595 4321
327.4429 3717
327.5262 3703
327.6095 3297
327.6929 2332
327.7762 1322
327.8596 671
327.9429 302
328.0262 309
328.1096 477
328.1929 854
328.2763 1301
328.3596 1660
328.4429 2077
328.5263 2221
328.6096 2378
328.6930 2177
328.7763 1946
328.8596 1708
328.9430 1393
329.0263 966
329.1097 803
329.1930 641
329.2763 527
329.3597 413
329.4430 368
329.5264 348
329.6097 368
329.6930 360
329.7764 299
329.8597 302
329.9431 159
330.0264 200
330.1097 178
330.1931 223
330.2764 282
330.3598 454
330.4431 640
330.5264 792
330.6098 977
330.6931 1310
330.7765 1302
330.8598 1237
330.9431 1380
331.0265 1242
331.1098 1188
331.1932 1098
331.2765 936
331.3598 1018
331.4432 1051
331.5265 1066
331.6099 1250
331.6932 1339
331.7765 1389
331.8599 1488
331.9432 1651
332.0266 1733
332.1099 1649
332.1932 1783
332.2766 1963
332.3599 2055
332.4433 2200
332.5266 2332
332.6099 2580
332.6933 2952
332.7766 3031
332.8600 3046
332.9433 3192
333.0266 3113
333.1100 2815
333.1933 2622
333.2767 2112
333.3600 1895
333.4433 1612
333.5267 1356
333.6100 1432
333.6934 1528
333.7767 1850
333.8600 2258
333.9434 2687
334.0267 3171
334.1101 3639
334.1934 4217
334.2767 4180
334.3601 4056
334.4434 3987
334.5268 3273
334.6101 2827
334.6934 2050
334.7768 1606
334.8601 1023
334.9435 768
335.0268 754
335.1101 737
335.1935 1055
335.2768 1479
335.3602 1988
335.4435 2484
335.5268 2840
335.6102 3073
335.6935 3311
335.7769 3222
335.8602 2841
335.9435 2416
336.0269 1909
336.1102 1360
336.1936 864
336.2769 539
336.3602 224
336.4436 135
336.5269 134
336.6103 351
336.6936 583
336.7769 799
336.8603 1065
336.9436 1248
337.0270 1357
337.1103 1374
337.1936 1423
337.2770 1245
337.3603 963
337.4437 856
337.5270 642
337.6103 424
337.6937 275
337.7770 201
337.8604 131
337.9437 92
338.0270 90
338.1104 126
338.1937 108
338.2771 135
338.3604 135
338.4437 200
338.5271 236
338.6104 240
338.6938 312
338.7771 388
338.8604 438
338.9438 448
339.0271 510
339.1105 525
339.1938 638
339.2771 554
339.3605 538
339.4438 422
339.5272 379
339.6105 373
339.6938 393
339.7772 399
339.8605 442
339.9439 560
340.0272 533
340.1105 697
340.1939 772
340.2772 864
340.3606 975
340.4439 965
340.5272 965
340.6106 1051
340.6939 1137
340.7773 1051
340.8606 1127
340.9439 1220
341.0273 1272
341.1106 1391
341.1940 1525
341.2773 1639
341.3606 1667
341.4440 1676
341.5273 1655
341.6107 1695
341.6940 1439
341.7773 1378
341.8607 1148
341.9440 1073
342.0274 944
342.1107 1122
342.1940 1392
342.2774 1571
342.3607 1768
342.4441 1903
342.5274 2238
342.6107 2391
342.6941 2588
342.7774 2435
342.8608 2384
342.9441 2166
343.0274 1866
343.1108 1624
343.1941 1175
343.2775 877
343.3608 693
343.4441 642
343.5275 707
343.6108 908
343.6942 1036
343.7775 1275
343.8608 1522
343.9442 1808
344.0275 2025
344.1109 2084
344.1942 2034
344.2775 1914
344.3609 1654
344.4442 1279
344.5276 977
344.6109 640
344.6942 437
344.7776 282
344.8609 191
344.9443 259
345.0276 317
345.1109 510
345.1943 686
345.2776 858
345.3610 982
345.4443 1038
345.5276 985
345.6110 972
345.6943 815
345.7777 639
345.8610 501
345.9443 298
346.0277 192
346.1110 140
346.1944 98
346.2777 90
346.3610 124
346.4444 143
346.5277 212
346.6111 259
346.6944 241
346.7777 243
346.8611 159
346.9444 165
347.0278 137
347.1111 98
347.1944 91
347.2778 108
347.3611 130
347.4445 200
347.5278 294
347.6111 296
347.6945 345
347.7778 391
347.8612 369
347.9445 314
348.0278 299
348.1112 252
348.1945 230
348.2779 218
348.3612 200
348.4445 182
348.5279 297
348.6112 402
348.6946 435
348.7779 472
348.8612 497
348.9446 565
349.0279 641
349.1113 750
349.1946 670
349.2779 766
349.3613 798
349.4446 865
349.5280 829
349.6113 793
349.6946 971
349.7780 1105
349.8613 1094
349.9447 1067
350.0280 1086
350.1113 1090
350.1947 1077
350.2780 1055
350.3614 906
350.4447 833
350.5280 897
350.6114 853
350.6947 936
350.7781 1117
350.8614 1111
350.9447 1268
351.0281 1467
351.1114 1626
351.1948 1712
351.2781 1719
351.3614 1723
351.4448 1491
351.5281 1392
351.6115 1252
351.6948 1029
351.7781 826
351.8615 697
351.9448 659
352.0282 630
352.1115 733
352.1948 868
352.2782 1063
352.3615 1237
352.4449 1380
352.5282 1648
352.6115 1616
352.6949 1737
352.7782 1494
352.8616 1368
352.9449 1167
353.0282 908
353.1116 695
353.1949 448
353.2783 346
353.3616 210
353.4449 240
353.5283 329
353.6116 346
353.6950 598
353.7783 618
353.8616 766
353.9450 890
354.0283 913
354.1117 978
354.1950 893
354.2783 756
354.3617 532
354.4450 444
354.5284 305
354.6117 182
354.6950 105
354.7784 39
354.8617 39
354.9451 71
355.0284 97
355.1117 147
355.1951 224
355.2784 273
355.3618 287
355.4451 235
355.5284 280
355.6118 230
355.6951 184
355.7785 176
355.8618 164
355.9451 160
356.0285 141
356.1118 162
356.1952 166
356.2785 158
356.3618 134
356.4452 119
356.5285 153
356.6119 105
356.6952 89
356.7785 65
356.8619 43
356.9452 42
357.0286 34
357.1119 78
357.1952 145
357.2786 153
357.3619 250
357.4453 310
357.5286 343
357.6119 270
357.6953 368
357.7786 301
357.8620 340
357.9453 270
358.0286 275
358.1120 282
358.1953 244
358.2787 220
358.3620 232
358.4453 256
358.5287 246
358.6120 257
358.6954 295
358.7787 314
358.8620 400
358.9454 335
359.0287 327
359.1121 360
359.1954 316
359.2787 278
359.3621 362
359.4454 454
359.5288 470
359.6121 418
359.6954 450
359.7788 467
359.8621 455
359.9455 466
360.0288 393
360.1121 373
360.1955 300
360.2788 299
360.3622 247
360.4455 213
360.5288 296
360.6122 245
360.6955 297
360.7789 420
360.8622 464
360.9455 536
361.0289 590
361.1122 635
361.1956 580
361.2789 576
361.3622 501
361.4456 513
361.5289 369
361.6123 244
361.6956 222
361.7789 139
361.8623 113
361.9456 115
362.0290 200
362.1123 317
362.1956 427
362.2790 449
362.3623 590
362.4457 700
362.5290 727
362.6123 679
362.6957 553
362.7790 581
362.8624 485
362.9457 311
363.0290 225
363.1124 100
363.1957 81
363.2791 47
363.3624 45
363.4457 56
363.5291 101
363.6124 124
363.6958 193
363.7791 207
363.8624 237
363.9458 241
364.0291 218
364.1125 230
364.1958 262
364.2791 149
364.3625 163
364.4458 156
364.5292 142
364.6125 100
364.6958 102
364.7792 133
364.8625 88
364.9459 66
365.0292 69
365.1125 46
365.1959 42
365.2792 46
365.3626 57
365.4459 53
365.5292 93
365.6126 139
365.6959 166
365.7793 161
365.8626 190
365.9459 219
366.0293 223
366.1126 240
366.1960 227
366.2793 174
366.3626 164
366.4460 179
366.5293 180
366.6127 220
366.6960 208
366.7793 191
366.8627 224
366.9460 210
367.0294 237
367.1127 303
367.1960 286
367.2794 287
367.3627 294
367.4461 356
367.5294 327
367.6127 395
367.6961 417
367.7794 458
367.8628 566
367.9461 617
368.0294 554
368.1128 598
368.1961 702
368.2795 567
368.3628 586
368.4461 591
368.5295 498
368.6128 333
368.6962 426
368.7795 372
368.8628 366
368.9462 363
369.0295 485
369.1129 572
369.1962 691
369.2795 821
369.3629 841
369.4462 981
369.5296 1000
369.6129 917
369.6962 979
369.7796 944
369.8629 720
369.9463 568
370.0296 497
370.1129 314
370.1963 264
370.2796 211
370.3630 230
370.4463 271
370.5296 371
370.6130 568
370.6963 619
370.7797 802
370.8630 848
370.9463 908
371.0297 777
371.1130 805
371.1964 710
371.2797 593
371.3630 429
371.4464 319
371.5297 195
371.6131 133
371.6964 83
371.7797 61
371.8631 75
371.9464 162
372.0298 156
372.1131 204
372.1964 264
372.2798 320
372.3631 295
372.4465 323
372.5298 317
372.6131 290
372.6965 247
372.7798 182
372.8632 138
372.9465 83
373.0298 90
373.1132 101
373.1965 86
373.2799 82
373.3632 114
373.4465 94
373.5299 73
373.6132 82
373.6966 65
373.7799 84
373.8632 55
373.9466 80
374.0299 62
374.1133 87
374.1966 87
374.2799 119
374.3633 148
374.4466 198
374.5300 205
374.6133 267
374.6966 196
374.7800 191
374.8633 206
374.9467 193
375.0300 175
375.1133 167
375.1967 159
375.2800 185
375.3634 132
375.4467 152
375.5300 177
375.6134 209
375.6967 227
375.7801 274
375.8634 240
375.9467 284
376.0301 295
376.1134 327
376.1968 339
376.2801 350
376.3634 335
376.4468 413
376.5301 381
376.6135 426
376.6968 404
376.7801 419
376.8635 469
376.9468 435
377.0302 371
377.1135 334
377.1968 351
377.2802 293
377.3635 248
377.4469 254
377.5302 310
377.6135 372
377.6969 433
377.7802 492
377.8636 582
377.9469 620
378.0302 705
378.1136 700
378.1969 655
378.2803 634
378.3636 579
378.4469 493
378.5303 385
378.6136 271
378.6970 270
378.7803 238
378.8636 205
378.9470 227
379.0303 277
379.1137 364
379.1970 436
379.2803 531
379.3637 653
379.4470 644
379.5304 580
379.6137 638
379.6970 535
379.7804 439
379.8637 342
379.9471 287
380.0304 185
380.1137 119
380.1971 79
380.2804 91
380.3638 97
380.4471 127
380.5304 184
380.6138 212
380.6971 240
380.7805 331
380.8638 353
380.9471 327
381.0305 330
381.1138 280
381.1972 187
381.2805 219
381.3638 153
381.4472 85
381.5305 32
381.6139 52
381.6972 17
381.7805 14
381.8639 57
381.9472 65
382.0306 79
382.1139 81
382.1972 117
382.2806 99
382.3639 97
382.4473 91
382.5306 81
382.6139 72
382.6973 31
382.7806 54
382.8640 65
382.9473 26
383.0306 48
383.1140 31
383.1973 34
383.2807 58
383.3640 77
383.4473 35
383.5307 57
383.6140 38
383.6974 28
383.7807 26
383.8640 34
383.9474 6
384.0307 30
384.1141 49
384.1974 48
384.2807 76
384.3641 66
384.4474 100
384.5308 94
384.6141 86
384.6974 109
384.7808 102
384.8641 112
384.9475 128
385.0308 131
385.1141 139
385.1975 121
385.2808 110
385.3642 131
385.4475 136
385.5308 116
385.6142 124
385.6975 102
385.7809 111
385.8642 90
385.9475 128
386.0309 111
386.1142 118
386.1976 156
386.2809 157
386.3642 178
386.4476 218
386.5309 256
386.6143 296
386.6976 261
386.7809 224
386.8643 229
386.9476 220
387.0310 189
387.1143 159
387.1976 98
387.2810 99
387.3643 91
387.4477 85
387.5310 103
387.6143 111
387.6977 190
387.7810 175
387.8644 262
387.9477 323
388.0310 274
388.1144 297
388.1977 279
388.2811 251
388.3644 174
388.4477 171
388.5311 161
388.6144 111
388.6978 65
388.7811 64
388.8644 70
388.9478 77
389.0311 122
389.1145 169
389.1978 181
389.2811 173
389.3645 235
389.4478 227
389.5312 284
389.6145 204
389.6978 177
389.7812 172
389.8645 118
389.9479 66
390.0312 37
390.1145 35
390.1979 22
390.2812 41
390.3646 43
390.4479 59
390.5312 69
390.6146 117
390.6979 100
390.7813 81
390.8646 93
390.9479 117
391.0313 67
391.1146 89
391.1980 41
391.2813 30
391.3646 20
391.4480 24
391.5313 33
391.6147 43
391.6980 62
391.7813 43
391.8647 65
391.9480 81
392.0314 49
392.1147 60
392.1980 57
392.2814 29
392.3647 39
392.4481 31
392.5314 27
392.6147 50
392.6981 42
392.7814 88
392.8648 105
392.9481 87
393.0314 117
393.1148 107
393.1981 142
393.2815 150
393.3648 164
393.4481 119
393.5315 104
393.6148 127
393.6982 157
393.7815 122
393.8648 142
393.9482 104
394.0315 163
394.1149 127
394.1982 179
394.2815 144
394.3649 152
394.4482 135
394.5316 161
394.6149 170
394.6982 155
394.7816 168
394.8649 178
394.9483 238
395.0316 200
395.1149 242
395.1983 258
395.2816 249
395.3650 235
395.4483 206
395.5316 272
395.6150 203
395.6983 194
395.7817 146
395.8650 123
395.9483 142
396.0317 133
396.1150 122
396.1984 178
396.2817 188
396.3650 234
396.4484 277
396.5317 322
396.6151 324
396.6984 298
396.7817 261
396.8651 231
396.9484 158
397.0318 138
397.1151 86
397.1984 62
397.2818 49
397.3651 47
397.4485 58
397.5318 83
397.6151 91
397.6985 132
397.7818 209
397.8652 160
397.9485 146
398.0318 141
398.1152 142
398.1985 107
398.2819 102
398.3652 75
398.4485 77
398.5319 39
398.6152 61
398.6986 48
398.7819 49
398.8652 89
398.9486 49
399.0319 134
399.1153 107
399.1986 77
399.2819 57
399.3653 60
399.4486 38
399.5320 52
399.6153 30
399.6986 43
399.7820 28
399.8653 38
399.9487 61
400.0320 86
400.1153 102
400.1987 173
400.2820 103
400.3654 118
400.4487 128
400.5320 116
400.6154 98
400.6987 73
400.7821 44
400.8654 28
400.9487 50
401.0321 53
401.1154 49
401.1988 55
401.2821 97
401.3654 107
401.4488 154
401.5321 163
401.6155 218
401.6988 181
401.7821 186
401.8655 204
401.9488 201
402.0322 228
402.1155 190
402.1988 164
402.2822 146
402.3655 161
402.4489 167
402.5322 174
402.6155 182
402.6989 156
402.7822 226
402.8656 206
402.9489 226
403.0322 228
403.1156 234
403.1989 261
403.2823 325
403.3656 299
403.4489 333
403.5323 357
403.6156 349
403.6990 378
403.7823 340
403.8656 384
403.9490 313
404.0323 291
404.1157 289
404.1990 255
404.2823 182
404.3657 194
404.4490 200
404.5324 209
404.6157 226
404.6990 374
404.7824 323
404.8657 355
404.9491 399
405.0324 447
405.1157 391
405.1991 384
405.2824 419
405.3658 373
405.4491 332
405.5324 257
405.6158 230
405.6991 138
405.7825 104
405.8658 117
405.9491 98
406.0325 149
406.1158 153
406.1992 209
406.2825 239
406.3658 257
406.4492 319
406.5325 286
406.6159 256
406.6992 235
406.7825 226
406.8659 186
406.9492 136
407.0326 121
407.1159 72
407.1992 67
407.2826 52
407.3659 89
407.4493 120
407.5326 81
407.6159 121
407.6993 187
407.7826 151
407.8660 178
407.9493 146
408.0326 112
408.1160 108
408.1993 65
408.2827 52
408.3660 36
408.4493 26
408.5327 39
408.6160 28
408.6994 32
408.7827 52
408.8660 64
408.9494 73
409.0327 58
409.1161 49
409.1994 68
409.2827 80
409.3661 36
409.4494 30
409.5328 25
409.6161 33
409.6994 47
409.7828 72
409.8661 67
409.9495 115
410.0328 97
410.1161 111
410.1995 174
410.2828 151
410.3662 126
410.4495 138
410.5328 117
410.6162 102
410.6995 99
410.7829 128
410.8662 120
410.9495 102
411.0329 153
411.1162 171
411.1996 208
411.2829 212
411.3662 246
411.4496 245
411.5329 233
411.6163 214
411.6996 218
411.7829 235
411.8663 267
411.9496 208
412.0330 237
412.1163 246
412.1996 264
412.2830 275
412.3663 261
412.4497 275
412.5330 276
412.6163 257
412.6997 268
412.7830 245
412.8664 249
412.9497 214
413.0330 206
413.1164 200
413.1997 183
413.2831 208
413.3664 235
413.4497 263
413.5331 284
413.6164 246
413.6998 280
413.7831 312
413.8664 269
413.9498 241
414.0331 201
414.1165 212
414.1998 147
414.2831 143
414.3665 118
414.4498 118
414.5332 130
414.6165 164
414.6998 128
414.7832 168
414.8665 193
414.9499 235
415.0332 259
415.1165 231
415.1999 220
415.2832 221
415.3666 211
415.4499 195
415.5332 110
415.6166 96
415.6999 84
415.7833 55
415.8666 39
415.9499 48
416.0333 54
416.1166 96
416.2000 57
416.2833 118
416.3666 109
416.4500 170
416.5333 144
416.6167 99
416.7000 118
416.7833 118
416.8667 85
416.9500 87
417.0334 48
417.1167 37
417.2000 30
417.2834 51
417.3667 22
417.4501 38
417.5334 48
417.6167 34
417.7001 48
417.7834 25
417.8668 62
417.9501 36
418.0334 30
418.1168 37
418.2001 32
418.2835 64
418.3668 69
418.4501 34
418.5335 66
418.6168 56
418.7002 68
418.7835 77
418.8668 77
418.9502 73
419.0335 97
419.1169 75
419.2002 66
419.2835 53
419.3669 54
419.4502 56
419.5336 55
419.6169 60
419.7002 59
419.7836 103
419.8669 88
419.9503 114
420.0336 123
420.1169 111
420.2003 189
420.2836 103
420.3670 129
420.4503 120
420.5336 131
420.6170 111
420.7003 123
420.7837 129
420.8670 119
420.9503 160
421.0337 156
421.1170 159
421.2004 153
421.2837 151
421.3670 142
421.4504 134
421.5337 153
421.6171 163
421.7004 106
421.7837 150
421.8671 120
421.9504 137
422.0338 194
422.1171 159
422.2004 240
422.2838 203
422.3671 208
422.4505 171
422.5338 188
422.6171 190
422.7005 169
422.7838 142
422.8672 167
422.9505 118
423.0338 140
423.1172 117
423.2005 118
423.2839 123
423.3672 137
423.4505 148
423.5339 126
423.6172 178
423.7006 236
423.7839 224
423.8672 156
423.9506 184
424.0339 216
424.1173 182
424.2006 135
424.2839 150
424.3673 103
424.4506 106
424.5340 112
424.6173 59
424.7006 60
424.7840 76
424.8673 84
424.9507 96
425.0340 110
425.1173 99
425.2007 97
425.2840 99
425.3674 80
425.4507 99
425.5340 61
425.6174 68
425.7007 71
425.7841 54
425.8674 44
425.9507 35
426.0341 22
426.1174 46
426.2008 51
426.2841 27
426.3674 30
426.4508 52
426.5341 25
426.6175 37
426.7008 64
426.7841 39
426.8675 37
426.9508 41
427.0342 37
427.1175 32
427.2008 48
427.2842 30
427.3675 25
427.4509 37
427.5342 36
427.6175 47
427.7009 46
427.7842 54
427.8676 69
427.9509 59
428.0342 43
428.1176 36
428.2009 38
428.2843 49
428.3676 61
428.4509 42
428.5343 45
428.6176 50
428.7010 58
428.7843 49
428.8676 59
428.9510 61
429.0343 60
429.1177 44
429.2010 61
429.2843 51
429.3677 71
429.4510 75
429.5344 67
429.6177 79
429.7010 82
429.7844 52
429.8677 122
429.9511 95
430.0344 90
430.1177 100
430.2011 84
430.2844 90
430.3678 115
430.4511 78
430.5344 116
430.6178 82
430.7011 120
430.7845 100
430.8678 141
430.9511 144
431.0345 154
431.1178 157
431.2012 163
431.2845 137
431.3678 155
431.4512 131
431.5345 131
431.6179 84
431.7012 88
431.7845 102
431.8679 102
431.9512 125
432.0346 100
432.1179 105
432.2012 149
432.2846 165
432.3679 151
432.4513 159
432.5346 190
432.6179 167
432.7013 147
432.7846 144
432.8680 149
432.9513 115
433.0346 94
433.1180 78
433.2013 68
433.2847 69
433.3680 72
433.4513 93
433.5347 100
433.6180 128
433.7014 159
433.7847 157
433.8680 139
433.9514 106
434.0347 130
434.1181 112
434.2014 111
434.2847 93
434.3681 67
434.4514 62
434.5348 58
434.6181 47
434.7014 64
434.7848 55
434.8681 77
434.9515 56
435.0348 61
435.1181 76
435.2015 88
435.2848 58
435.3682 71
435.4515 66
435.5348 35
435.6182 41
435.7015 31
435.7849 26
435.8682 37
435.9515 41
436.0349 46
436.1182 18
436.2016 14
436.2849 22
436.3682 24
436.4516 23
436.5349 19
436.6183 15
436.7016 41
436.7849 10
436.8683 11
436.9516 23
437.0350 46
437.1183 36
437.2016 38
437.2850 50
437.3683 46
437.4517 38
437.5350 61
437.6183 41
437.7017 53
437.7850 54
437.8684 73
437.9517 62
438.0350 53
438.1184 72
438.2017 73
438.2851 83
438.3684 76
438.4517 69
438.5351 83
438.6184 62
438.7018 65
438.7851 71
438.8684 98
438.9518 96
439.0351 104
439.1185 104
439.2018 97
439.2851 69
439.3685 87
439.4518 98
439.5352 130
439.6185 99
439.7018 108
439.7852 96
439.8685 104
439.9519 94
440.0352 76
440.1185 96
440.2019 83
440.2852 73
440.3686 70
440.4519 58
440.5352 68
440.6186 65
440.7019 122
440.7853 112
440.8686 113
440.9519 144
441.0353 143
441.1186 132
441.2020 157
441.2853 114
441.3686 107
441.4520 109
441.5353 88
441.6187 65
441.7020 84
441.7853 72
441.8687 79
441.9520 56
442.0354 121
442.1187 150
442.2020 186
442.2854 176
442.3687 187
442.4521 183
442.5354 185
442.6187 163
442.7021 134
442.7854 120
442.8688 91
442.9521 104
443.0354 78
443.1188 57
443.2021 58
443.2855 50
443.3688 73
443.4521 64
443.5355 95
443.6188 88
443.7022 76
443.7855 109
443.8688 88
443.9522 57
444.0355 92
444.1189 62
444.2022 52
444.2855 30
444.3689 25
444.4522 30
444.5356 13
444.6189 17
444.7022 48
444.7856 22
444.8689 42
444.9523 21
445.0356 22
445.1189 27
445.2023 20
445.2856 43
445.3690 36
445.4523 42
445.5356 25
445.6190 42
445.7023 43
445.7857 31
445.8690 67
445.9523 40
446.0357 82
446.1190 84
446.2024 79
446.2857 83
446.3690 84
446.4524 78
446.5357 81
446.6191 113
446.7024 80
446.7857 86
446.8691 107
446.9524 132
447.0358 108
447.1191 106
447.2024 101
447.2858 133
447.3691 136
447.4525 119
447.5358 109
447.6191 134
447.7025 133
447.7858 123
447.8692 139
447.9525 150
448.0358 165
448.1192 200
448.2025 164
448.2859 168
448.3692 183
448.4525 216
448.5359 174
448.6192 213
448.7026 167
448.7859 182
448.8692 136
448.9526 142
449.0359 117
449.1193 147
449.2026 139
449.2859 182
449.3693 175
449.4526 203
449.5360 210
449.6193 182
449.7026 153
449.7860 235
449.8693 209
449.9527 179
450.0360 188
450.1193 201
450.2027 145
450.2860 141
450.3694 142
450.4527 111
450.5360 64
450.6194 110
450.7027 117
450.7861 120
450.8694 95
450.9527 158
451.0361 119
451.1194 135
451.2028 184
451.2861 163
451.3694 159
451.4528 168
451.5361 109
451.6195 123
451.7028 94
451.7861 73
451.8695 59
451.9528 54
452.0362 75
452.1195 73
452.2028 95
452.2862 106
452.3695 111
452.4529 92
452.5362 117
452.6195 88
452.7029 87
452.7862 126
452.8696 121
452.9529 122
453.0362 73
453.1196 53
453.2029 49
453.2863 47
453.3696 53
453.4529 27
453.5363 20
453.6196 21
453.7030 15
453.7863 48
453.8696 39
453.9530 30
454.0363 31
454.1197 38
454.2030 35
454.2863 16
454.3697 51
454.4530 22
454.5364 48
454.6197 66
454.7030 29
454.7864 33
454.8697 24
454.9531 62
455.0364 52
455.1197 27
455.2031 68
455.2864 41
455.3698 28
455.4531 46
455.5364 28
455.6198 33
455.7031 35
455.7865 19
455.8698 29
455.9531 31
456.0365 29
456.1198 52
456.2032 44
456.2865 46
456.3698 60
456.4532 92
456.5365 63
456.6199 81
456.7032 88
456.7865 65
456.8699 109
456.9532 76
457.0366 81
457.1199 74
457.2032 52
457.2866 78
457.3699 48
457.4533 43
457.5366 57
457.6199 53
457.7033 48
457.7866 92
457.8700 68
457.9533 104
458.0366 90
458.1200 121
458.2033 115
458.2867 94
458.3700 146
458.4533 138
458.5367 128
458.6200 121
458.7034 107
458.7867 109
458.8700 85
458.9534 76
459.0367 34
459.1201 53
459.2034 72
459.2867 58
459.3701 35
459.4534 71
459.5368 81
459.6201 98
459.7034 142
459.7868 110
459.8701 139
459.9535 128
460.0368 98
460.1201 90
460.2035 95
460.2868 86
460.3702 44
460.4535 50
460.5368 42
460.6202 22
460.7035 46
460.7869 28
460.8702 24
460.9535 30
461.0369 38
461.1202 40
461.2036 83
461.2869 58
461.3702 70
461.4536 75
461.5369 53
461.6203 66
461.7036 54
461.7869 31
461.8703 34
461.9536 30
462.0370 17
462.1203 31
462.2036 21
462.2870 19
462.3703 20
462.4537 22
462.5370 13
462.6203 18
462.7037 35
462.7870 26
462.8704 32
462.9537 22
463.0370 30
463.1204 30
463.2037 22
463.2871 63
463.3704 40
463.4537 33
463.5371 39
463.6204 60
463.7038 44
463.7871 28
463.8704 36
463.9538 36
464.0371 53
464.1205 53
464.2038 26
464.2871 22
464.3705 31
464.4538 48
464.5372 60
464.6205 67
464.7038 49
464.7872 77
464.8705 76
464.9539 44
465.0372 69
465.1205 81
465.2039 104
465.2872 89
465.3706 62
465.4539 80
465.5372 93
465.6206 55
465.7039 58
465.7873 73
465.8706 73
465.9539 62
466.0373 71
466.1206 72
466.2040 78
466.2873 72
466.3706 84
466.4540 92
466.5373 100
466.6207 87
466.7040 67
466.7873 108
466.8707 69
466.9540 97
467.0374 98
467.1207 78
467.2040 122
467.2874 91
467.3707 93
467.4541 87
467.5374 87
467.6207 63
467.7041 87
467.7874 72
467.8708 40
467.9541 76
468.0374 71
468.1208 97
468.2041 82
468.2875 102
468.3708 118
468.4541 90
468.5375 75
468.6208 91
468.7042 83
468.7875 71
468.8708 66
468.9542 62
469.0375 51
469.1209 52
469.2042 48
469.2875 53
469.3709 60
469.4542 55
469.5376 47
469.6209 47
469.7042 44
469.7876 56
469.8709 44
469.9543 54
470.0376 18
470.1209 48
470.2043 28
470.2876 28
470.3710 37
470.4543 26
470.5376 19
470.6210 11
470.7043 21
470.7877 59
470.8710 15
470.9543 18
471.0377 9
471.1210 37
471.2044 58
471.2877 54
471.3710 29
471.4544 31
471.5377 25
471.6211 20
471.7044 32
471.7877 30
471.8711 58
471.9544 16
472.0378 13
472.1211 15
472.2044 21
472.2878 22
472.3711 40
472.4545 15
472.5378 12
472.6211 26
472.7045 18
472.7878 33
472.8712 23
472.9545 14
473.0378 14
473.1212 38
473.2045 30
473.2879 17
473.3712 37
473.4545 36
473.5379 52
473.6212 46
473.7046 58
473.7879 73
473.8712 71
473.9546 52
474.0379 54
474.1213 50
474.2046 47
474.2879 60
474.3713 78
474.4546 68
474.5380 51
474.6213 81
474.7046 96
474.7880 53
474.8713 78
474.9547 77
475.0380 80
475.1213 99
475.2047 67
475.2880 58
475.3714 76
475.4547 82
475.5380 106
475.6214 100
475.7047 83
475.7881 108
475.8714 100
475.9547 130
476.0381 120
476.1214 114
476.2048 91
476.2881 115
476.3714 79
476.4548 85
476.5381 81
476.6215 63
476.7048 78
476.7881 82
476.8715 54
476.9548 67
477.0382 92
477.1215 95
477.2048 86
477.2882 64
477.3715 124
477.4549 124
477.5382 103
477.6215 125
477.7049 101
477.7882 85
477.8716 65
477.9549 61
478.0382 71
478.1216 71
478.2049 43
478.2883 55
478.3716 60
478.4549 52
478.5383 30
478.6216 34
478.7050 73
478.7883 79
478.8716 77
478.9550 36
479.0383 89
479.1217 100
479.2050 42
479.2883 54
479.3717 41
479.4550 33
479.5384 52
479.6217 12
479.7050 23
479.7884 6
479.8717 21
479.9551 17
480.0384 28
480.1217 26
480.2051 43
480.2884 42
480.3718 18
480.4551 44
480.5384 35
480.6218 16
480.7051 15
480.7885 12
480.8718 9
480.9551 16
481.0385 8
481.1218 12
481.2052 8
481.2885 13
481.3718 38
481.4552 16
481.5385 23
481.6219 20
481.7052 17
481.7885 16
481.8719 40
481.9552 34
482.0386 26
482.1219 15
482.2052 16
482.2886 22
482.3719 32
482.4553 23
482.5386 9
482.6219 21
482.7053 32
482.7886 23
482.8720 21
482.9553 32
483.0386 36
483.1220 32
483.2053 50
483.2887 11
483.3720 35
483.4553 52
483.5387 24
483.6220 34
483.7054 28
483.7887 38
483.8720 24
483.9554 35
484.0387 41
484.1221 44
484.2054 28
484.2887 53
484.3721 43
484.4554 56
484.5388 94
484.6221 82
484.7054 65
484.7888 75
484.8721 83
484.9555 48
485.0388 71
485.1221 46
485.2055 72
485.2888 40
485.3722 62
485.4555 38
485.5388 36
485.6222 82
485.7055 67
485.7889 73
485.8722 101
485.9555 76
486.0389 126
486.1222 125
486.2056 92
486.2889 87
486.3722 129
486.4556 125
486.5389 77
486.6223 58
486.7056 63
486.7889 33
486.8723 40
486.9556 44
487.0390 45
487.1223 44
487.2056 70
487.2890 44
487.3723 59
487.4557 71
487.5390 67
487.6223 57
487.7057 85
487.7890 77
487.8724 80
487.9557 60
488.0390 39
488.1224 41
488.2057 36
488.2891 32
488.3724 21
488.4557 41
488.5391 23
488.6224 18
488.7058 17
488.7891 39
488.8724 28
488.9558 46
489.0391 16
489.1225 18
489.2058 53
489.2891 33
489.3725 33
489.4558 36
489.5392 41
489.6225 37
489.7058 37
489.7892 4
489.8725 10
489.9559 7
490.0392 11
490.1225 9
490.2059 7
490.2892 36
490.3726 15
490.4559 23
490.5392 28
490.6226 13
490.7059 24
490.7893 23
490.8726 9
490.9559 18
491.0393 17
491.1226 21
491.2060 12
491.2893 19
491.3726 49
491.4560 32
491.5393 20
491.6227 51
491.7060 26
491.7893 34
491.8727 30
491.9560 14
492.0394 36
492.1227 24
492.2060 29
492.2894 23
492.3727 40
492.4561 15
492.5394 22
492.6227 34
492.7061 29
492.7894 46
492.8728 55
492.9561 34
493.0394 37
493.1228 32
493.2061 32
493.2895 39
493.3728 54
493.4561 71
493.5395 51
493.6228 36
493.7062 52
493.7895 37
493.8728 42
493.9562 28
494.0395 28
494.1229 27
494.2062 32
494.2895 27
494.3729 30
494.4562 38
494.5396 39
494.6229 66
494.7062 50
494.7896 44
494.8729 92
494.9563 66
495.0396 91
495.1229 53
495.2063 38
495.2896 43
495.3730 35
495.4563 47
495.5396 29
495.6230 26
495.7063 32
495.7897 27
495.8730 26
495.9563 41
496.0397 25
496.1230 33
496.2064 53
496.2897 48
496.3730 47
496.4564 49
496.5397 58
496.6231 46
496.7064 72
496.7897 26
496.8731 43
496.9564 24
497.0398 22
497.1231 9
497.2064 7
497.2898 9
497.3731 24
497.4565 18
497.5398 39
497.6231 29
497.7065 25
497.7898 32
497.8732 27
497.9565 49
498.0398 29
498.1232 45
498.2065 14
498.2899 17
498.3732 22
498.4565 17
498.5399 14
498.6232 3
498.7066 1
498.7899 16
498.8732 9
498.9566 15
499.0399 24
499.1233 22
499.2066 24
499.2899 18
499.3733 17
499.4566 14
499.5400 32
499.6233 12
499.7066 32
499.7900 33
499.8733 10
499.9567 31
500.0400 19
500.1233 46
500.2067 23
500.2900 41
500.3734 40
500.4567 17
500.5400 15
500.6234 55
500.7067 40
500.7901 20
500.8734 18
500.9567 28
501.0401 30
501.1234 54
501.2068 38
501.2901 25
501.3734 31
501.4568 26
501.5401 22
501.6235 26
501.7068 24
501.7901 39
501.8735 39
501.9568 35
502.0402 86
502.1235 25
502.2068 43
502.2902 60
502.3735 45
502.4569 37
502.5402 52
502.6235 25
502.7069 43
502.7902 37
502.8736 40
502.9569 59
503.0402 58
503.1236 26
503.2069 45
503.2903 37
503.3736 49
503.4569 32
503.5403 33
503.6236 40
503.7070 60
503.7903 43
503.8736 51
503.9570 42
504.0403 36
504.1237 37
504.2070 60
504.2903 32
504.3737 38
504.4570 40
504.5404 35
504.6237 42
504.7070 16
504.7904 18
504.8737 20
504.9571 25
505.0404 29
505.1237 52
505.2071 47
505.2904 48
505.3738 45
505.4571 30
505.5404 28
505.6238 52
505.7071 33
505.7905 29
505.8738 24
505.9571 19
506.0405 24
506.1238 19
506.2072 18
506.2905 23
506.3738 13
506.4572 32
506.5405 36
506.6239 44
506.7072 18
506.7905 19
506.8739 34
506.9572 49
507.0406 13
507.1239 32
507.2072 22
507.2906 33
507.3739 39
507.4573 11
507.5406 18
507.6239 16
507.7073 19
507.7906 30
507.8740 13
507.9573 40
508.0406 22
508.1240 17
508.2073 21
508.2907 9
508.3740 17
508.4573 9
508.5407 2
508.6240 6
508.7074 17
508.7907 16
508.8740 13
508.9574 29
509.0407 14
509.1241 18
509.2074 28
509.2907 14
509.3741 18
509.4574 12
509.5408 31
509.6241 26
509.7074 11
509.7908 24
509.8741 17
509.9575 19
510.0408 14
510.1241 20
510.2075 27
510.2908 21
510.3742 12
510.4575 21
510.5408 17
510.6242 9
510.7075 12
510.7909 21
510.8742 21
510.9575 11
511.0409 23
511.1242 15
511.2076 28
511.2909 24
511.3742 18
511.4576 24
511.5409 23
511.6243 30
511.7076 42
511.7909 22
511.8743 30
511.9576 19
512.0410 8
512.1243 15
512.2076 21
512.2910 10
512.3743 38
512.4577 22
512.5410 41
512.6243 37
512.7077 20
512.7910 33
512.8744 55
512.9577 56
513.0410 29
513.1244 19
513.2077 21
513.2911 16
513.3744 20
513.4577 10
513.5411 12
513.6244 22
513.7078 16
513.7911 22
513.8744 12
513.9578 24
514.0411 11
514.1245 25
514.2078 33
514.2911 27
514.3745 58
514.4578 34
514.5412 25
514.6245 23
514.7078 6
514.7912 9
514.8745 16
514.9579 15
515.0412 13
515.1245 8
515.2079 29
515.2912 15
515.3746 22
515.4579 47
515.5412 22
515.6246 8
515.7079 7
515.7913 19
515.8746 19
515.9579 14
516.0413 9
516.1246 41
516.2080 3
516.2913 6
516.3746 18
516.4580 30
516.5413 11
516.6247 31
516.7080 17
516.7913 7
516.8747 15
516.9580 25
517.0414 27
517.1247 38
517.2080 20
517.2914 18
517.3747 10
517.4581 18
517.5414 6
517.6247 13
517.7081 9
517.7914 28
517.8748 12
517.9581 5
518.0414 5
518.1248 28
518.2081 26
518.2915 21
518.3748 14
518.4581 25
518.5415 13
518.6248 36
518.7082 16
518.7915 10
518.8748 3
518.9582 19
519.0415 12
519.1249 7
519.2082 16
519.2915 21
519.3749 33
519.4582 12
519.5416 27
519.6249 7
519.7082 21
519.7916 59
519.8749 22
519.9583 25
520.0416 60
520.1249 23
520.2083 15
520.2916 34
520.3750 13
520.4583 11
520.5416 21
520.6250 11
520.7083 14
520.7917 28
520.8750 13
520.9583 37
521.0417 17
521.1250 20
521.2084 32
521.2917 10
521.3750 23
521.4584 11
521.5417 19
521.6251 17
521.7084 23
521.7917 41
521.8751 14
521.9584 37
522.0418 24
522.1251 15
522.2084 31
522.2918 26
522.3751 17
522.4585 27
522.5418 22
522.6251 15
522.7085 11
522.7918 17
522.8752 16
522.9585 18
523.0418 17
523.1252 22
523.2085 31
523.2919 15
523.3752 24
523.4585 20
523.5419 36
523.6252 46
523.7086 35
523.7919 23
523.8752 13
523.9586 21
524.0419 21
524.1253 8
524.2086 17
524.2919 11
524.3753 25
524.4586 21
524.5420 12
524.6253 32
524.7086 28
524.7920 31
524.8753 32
524.9587 29
525.0420 3
525.1253 14
525.2087 11
525.2920 18
525.3754 6
525.4587 29
525.5420 9
525.6254 4
525.7087 16
525.7921 5
525.8754 9
525.9587 45
526.0421 24
526.1254 34
526.2088 5
526.2921 38
526.3754 8
526.4588 2
526.5421 13
526.6255 21
526.7088 15
526.7921 16
526.8755 4
526.9588 8
527.0422 4
527.1255 6
527.2088 0
527.2922 9
527.3755 23
527.4589 22
527.5422 13
527.6255 38
527.7089 19
527.7922 12
527.8756 6
527.9589 13
528.0422 17
528.1256 18
528.2089 12
528.2923 7
528.3756 17
528.4589 7
528.5423 16
528.6256 10
528.7090 13
528.7923 3
528.8756 23
528.9590 21
529.0423 12
529.1257 5
529.2090 12
529.2923 17
529.3757 22
529.4590 16
529.5424 10
529.6257 37
529.7090 20
529.7924 12
529.8757 35
529.9591 14
530.0424 9
530.1257 18
530.2091 12
530.2924 8
530.3758 13
530.4591 13
530.5424 5
530.6258 29
530.7091 13
530.7925 8
530.8758 10
530.9591 19
531.0425 11
531.1258 3
531.2092 15
531.2925 11
531.3758 13
531.4592 33
531.5425 5
531.6259 33
531.7092 14
531.7925 10
531.8759 12
531.9592 14
532.0426 17
532.1259 33
532.2092 35
532.2926 16
532.3759 13
532.4593 6
532.5426 41
532.6259 9
532.7093 17
532.7926 11
532.8760 16
532.9593 17
533.0426 17
533.1260 17
533.2093 8
533.2927 3
533.3760 12
533.4593 30
533.5427 24
533.6260 32
533.7094 8
533.7927 10
533.8760 31
533.9594 24
534.0427 30
534.1261 12
534.2094 3
534.2927 6
534.3761 16
534.4594 6
534.5428 2
534.6261 28
534.7094 3
534.7928 14
534.8761 28
534.9595 16
535.0428 5
535.1261 5
535.2095 11
535.2928 18
535.3762 15
535.4595 16
535.5428 6
535.6262 5
535.7095 28
535.7929 10
535.8762 16
535.9595 25
536.0429 5
536.1262 3
536.2096 6
536.2929 2
536.3762 15
536.4596 12
536.5429 16
536.6263 16
536.7096 21
536.7929 8
536.8763 39
536.9596 8
537.0430 17
537.1263 18
537.2096 30
537.2930 11
537.3763 7
537.4597 17
537.5430 12
537.6263 4
537.7097 22
537.7930 10
537.8764 5
537.9597 6
538.0430 5
538.1264 14
538.2097 13
538.2931 15
538.3764 9
538.4597 17
538.5431 9
538.6264 13
538.7098 8
538.7931 3
538.8764 8
538.9598 12
539.0431 18
539.1265 13
539.2098 16
539.2931 12
539.3765 11
539.4598 13
539.5432 7
539.6265 10
539.7098 7
539.7932 2
539.8765 24
539.9599 0
540.0432 15
540.1265 6
540.2099 6
540.2932 24
540.3766 17
540.4599 12
540.5432 10
540.6266 3
540.7099 8
540.7933 14
540.8766 36
540.9599 22
541.0433 3
541.1266 24
541.2100 6
541.2933 3
541.3766 14
541.4600 10
541.5433 13
541.6267 15
541.7100 8
541.7933 37
541.8767 11
541.9600 3
542.0434 15
542.1267 11
542.2100 15
542.2934 15
542.3767 9
542.4601 14
542.5434 11
542.6267 6
542.7101 8
542.7934 20
542.8768 24
542.9601 1
543.0434 13
543.1268 14
543.2101 6
543.2935 11
543.3768 8
543.4601 10
543.5435 17
543.6268 15
543.7102 30
543.7935 11
543.8768 6
543.9602 10
544.0435 7
544.1269 8
544.2102 22
544.2935 16
544.3769 6
544.4602 24
544.5436 8
544.6269 10
544.7102 4
544.7936 56
544.8769 5
544.9603 17
545.0436 23
545.1269 4
545.2103 29
545.2936 15
545.3770 7
545.4603 2
545.5436 3
545.6270 29
545.7103 5
545.7937 8
545.8770 10
545.9603 10
546.0437 21
546.1270 10
546.2104 25
546.2937 11
546.3770 13
546.4604 13
546.5437 14
546.6271 7
546.7104 4
546.7937 13
546.8771 0
546.9604 2
547.0438 10
547.1271 11
547.2104 13
547.2938 7
547.3771 25
547.4605 27
547.5438 12
547.6271 15
547.7105 4
547.7938 57
547.8772 8
547.9605 21
548.0438 12
548.1272 8
548.2105 13
548.2939 8
548.3772 11
548.4605 17
548.5439 16
548.6272 9
548.7106 3
548.7939 11
548.8772 16
548.9606 49
549.0439 12
549.1273 45
549.2106 38
549.2939 14
549.3773 7
549.4606 16
549.5440 9
549.6273 18
549.7106 16
549.7940 19
549.8773 37
549.9607 7
550.0440 19
550.1273 11
550.2107 24
550.2940 28
550.3774 30
550.4607 5
550.5440 16
550.6274 18
550.7107 14
550.7941 4
550.8774 9
550.9607 11
551.0441 11
551.1274 4
551.2108 6
551.2941 8
551.3774 24
551.4608 33
551.5441 5
551.6275 11
551.7108 11
551.7941 26
551.8775 23
551.9608 12
552.0442 1
552.1275 16
552.2108 3
552.2942 17
552.3775 2
552.4609 25
552.5442 30
552.6275 21
552.7109 26
552.7942 3
552.8776 10
552.9609 37
553.0442 11
553.1276 8
553.2109 11
553.2943 10
553.3776 32
553.4609 6
553.5443 38
553.6276 34
553.7110 11
553.7943 14
553.8776 13
553.9610 10
554.0443 34
554.1277 15
554.2110 5
554.2943 19
554.3777 32
554.4610 6
554.5444 14
554.6277 14
554.7110 13
554.7944 4
554.8777 2
554.9611 31
555.0444 12
555.1277 10
555.2111 10
555.2944 39
555.3778 10
555.4611 19
555.5444 14
555.6278 17
555.7111 7
555.7945 16
555.8778 6
555.9611 19
556.0445 5
556.1278 24
556.2112 14
556.2945 11
556.3778 13
556.4612 22
556.5445 4
556.6279 22
556.7112 14
556.7945 5
556.8779 7
556.9612 9
557.0446 9
557.1279 27
557.2112 13
557.2946 12
557.3779 12
557.4613 34
557.5446 9
557.6279 28
557.7113 19
557.7946 9
557.8780 4
557.9613 7
558.0446 12
558.1280 14
558.2113 9
558.2947 11
558.3780 6
558.4613 3
558.5447 22
558.6280 18
558.7114 19
558.7947 2
558.8780 11
558.9614 21
559.0447 5
559.1281 11
559.2114 43
559.2947 8
559.3781 4
559.4614 12
559.5448 17
559.6281 8
559.7114 33
559.7948 17
559.8781 16
559.9615 9
560.0448 13
560.1281 12
560.2115 4
560.2948 8
560.3782 9
560.4615 18
560.5448 5
560.6282 6
560.7115 22
560.7949 22
560.8782 5
560.9615 4
561.0449 29
561.1282 8
561.2116 7
561.2949 9
561.3782 12
561.4616 24
561.5449 13
561.6283 12
561.7116 7
561.7949 29
561.8783 18
561.9616 12
562.0450 15
562.1283 4
562.2116 9
562.2950 6
562.3783 4
562.4617 19
562.5450 41
562.6283 17
562.7117 11
562.7950 17
562.8784 17
562.9617 22
563.0450 10
563.1284 24
563.2117 35
563.2951 3
563.3784 1
563.4617 8
563.5451 28
563.6284 16
563.7118 14
563.7951 4
563.8784 10
563.9618 10
564.0451 22
564.1285 40
564.2118 28
564.2951 22
564.3785 20
564.4618 4
564.5452 19
564.6285 15
564.7118 13
564.7952 3
564.8785 4
564.9619 7
565.0452 26
565.1285 20
565.2119 13
565.2952 3
565.3786 30
565.4619 7
565.5452 4
565.6286 14
565.7119 7
565.7953 14
565.8786 15
565.9619 11
566.0453 2
566.1286 17
566.2120 9
566.2953 24
566.3786 7
566.4620 26
566.5453 10
566.6287 14
566.7120 6
566.7953 13
566.8787 23
566.9620 4
567.0454 17
567.1287 32
567.2120 21
567.2954 36
567.3787 9
567.4621 4
567.5454 12
567.6287 17
567.7121 7
567.7954 27
567.8788 6
567.9621 7
568.0454 23
568.1288 18
568.2121 40
568.2955 25
568.3788 38
568.4621 15
568.5455 11
568.6288 19
568.7122 3
568.7955 8
568.8788 36
568.9622 4
569.0455 15
569.1289 26
569.2122 13
569.2955 42
569.3789 7
569.4622 10
569.5456 15
569.6289 5
569.7122 21
569.7956 16
569.8789 16
569.9623 17
570.0456 26
570.1289 5
570.2123 1
570.2956 10
570.3790 26
570.4623 16
570.5456 24
570.6290 8
570.7123 61
570.7957 9
570.8790 11
570.9623 2
571.0457 20
571.1290 10
571.2124 26
571.2957 15
571.3790 7
571.4624 2
571.5457 21
571.6291 17
571.7124 7
571.7957 4
571.8791 32
571.9624 25
572.0458 27
572.1291 3
572.2124 8
572.2958 12
572.3791 16
572.4625 28
572.5458 10
572.6291 24
572.7125 8
572.7958 13
572.8792 8
572.9625 25
573.0458 17
573.1292 11
573.2125 1
573.2959 10
573.3792 26
573.4625 3
573.5459 30
573.6292 8
573.7126 9
573.7959 5
573.8792 10
573.9626 35
574.0459 13
574.1293 2
574.2126 19
574.2959 6
574.3793 11
574.4626 11
574.5460 8
574.6293 13
574.7126 20
574.7960 10
574.8793 21
574.9627 27
575.0460 16
575.1293 18
575.2127 13
575.2960 13
575.3794 8
575.4627 15
575.5460 20
575.6294 17
575.7127 17
575.7961 6
575.8794 7
575.9627 16
576.0461 4
576.1294 20
576.2128 11
576.2961 6
576.3794 13
576.4628 49
576.5461 6
576.6295 26
576.7128 28
576.7961 16
576.8795 7
576.9628 42
577.0462 2
577.1295 15
577.2128 23
577.2962 27
577.3795 17
577.4629 24
577.5462 7
577.6295 22
577.7129 35
577.7962 5
577.8796 5
577.9629 20
578.0462 9
578.1296 10
578.2129 4
578.2963 11
578.3796 12
578.4629 9
578.5463 9
578.6296 12
578.7130 17
578.7963 7
578.8796 40
578.9630 21
579.0463 1
579.1297 8
579.2130 13
579.2963 21
579.3797 4
579.4630 19
579.5464 2
579.6297 14
579.7130 3
579.7964 3
579.8797 11
579.9631 18
580.0464 7
580.1297 11
580.2131 22
580.2964 25
580.3798 29
580.4631 12
580.5464 11
580.6298 10
580.7131 17
580.7965 15
580.8798 20
580.9631 14
581.0465 13
581.1298 10
581.2132 7
581.2965 13
581.3798 6
581.4632 4
581.5465 5
581.6299 24
581.7132 6
581.7965 18
581.8799 34
581.9632 9
582.0466 20
582.1299 16
582.2132 27
582.2966 6
582.3799 18
582.4633 15
582.5466 4
582.6299 23
582.7133 7
582.7966 16
582.8800 24
582.9633 35
583.0466 5
583.1300 30
583.2133 14
583.2967 17
583.3800 32
583.4633 14
583.5467 11
583.6300 6
583.7134 22
583.7967 23
583.8800 8
583.9634 15
584.0467 13
584.1301 25
584.2134 14
584.2967 18
584.3801 34
584.4634 2
584.5468 39
584.6301 12
584.7134 8
584.7968 19
584.8801 2
584.9635 18
585.0468 10
585.1301 3
585.2135 4
585.2968 16
585.3802 6
585.4635 17
585.5468 23
585.6302 14
585.7135 13
585.7969 27
585.8802 16
585.9635 14
586.0469 7
586.1302 0
586.2136 28
586.2969 18
586.3802 14
586.4636 14
586.5469 15
586.6303 7
586.7136 22
586.7969 8
586.8803 16
586.9636 27
587.0470 17
587.1303 15
587.2136 8
587.2970 16
587.3803 43
587.4637 19
587.5470 18
587.6303 12
587.7137 23
587.7970 18
587.8804 18
587.9637 13
588.0470 15
588.1304 14
588.2137 56
588.2971 25
588.3804 7
588.4637 17
588.5471 5
588.6304 18
588.7138 13
588.7971 16
588.8804 35
588.9638 11
589.0471 13
589.1305 8
589.2138 20
589.2971 15
589.3805 39
589.4638 25
589.5472 13
589.6305 11
589.7138 5
589.7972 13
589.8805 12
589.9639 7
590.0472 15
590.1305 8
590.2139 11
590.2972 3
590.3806 3
590.4639 24
590.5472 42
590.6306 29
590.7139 11
590.7973 25
590.8806 20
590.9639 17
591.0473 1
591.1306 14
591.2140 25
591.2973 13
591.3806 4
591.4640 12
591.5473 19
591.6307 23
591.7140 11
591.7973 6
591.8807 7
591.9640 14
592.0474 15
592.1307 6
592.2140 5
592.2974 7
592.3807 8
592.4641 6
592.5474 12
592.6307 16
592.7141 43
592.7974 19
592.8808 12
592.9641 8
593.0474 10
593.1308 16
593.2141 10
593.2975 22
593.3808 5
593.4641 14
593.5475 44
593.6308 17
593.7142 1
593.7975 4
593.8808 19
593.9642 5
594.0475 19
594.1309 43
594.2142 12
594.2975 7
594.3809 17
594.4642 7
594.5476 15
594.6309 5
594.7142 13
594.7976 24
594.8809 6
594.9643 12
595.0476 7
595.1309 11
595.2143 5
595.2976 2
595.3810 29
595.4643 22
595.5476 12
595.6310 23
595.7143 5
595.7977 16
595.8810 30
595.9643 16
596.0477 17
596.1310 14
596.2144 11
596.2977 9
596.3810 5
596.4644 32
596.5477 10
596.6311 14
596.7144 4
596.7977 14
596.8811 34
596.9644 10
597.0478 14
597.1311 10
597.2144 13
597.2978 4
597.3811 11
597.4645 15
597.5478 3
597.6311 18
597.7145 13
597.7978 13
597.8812 22
597.9645 19
598.0478 25
598.1312 6
598.2145 13
598.2979 9
598.3812 9
598.4645 25
598.5479 36
598.6312 22
598.7146 5
598.7979 8
598.8812 33
598.9646 10
599.0479 0
599.1313 8
599.2146 5
599.2979 23
599.3813 18
599.4646 6
599.5480 11
599.6313 11
599.7146 22
599.7980 25
599.8813 18
599.9647 10
