0.0000 35
0.0833 10
0.1667 27
0.2500 13
0.3334 19
0.4167 37
0.5000 16
0.5834 21
0.6667 33
0.7501 31
0.8334 10
0.9167 16
1.0001 10
1.0834 26
1.1668 44
1.2501 21
1.3334 21
1.4168 30
1.5001 18
1.5835 20
1.6668 26
1.7501 5
1.8335 17
1.9168 53
2.0002 50
2.0835 9
2.1668 44
2.2502 13
2.3335 11
2.4169 19
2.5002 11
2.5835 20
2.6669 18
2.7502 13
2.8336 44
2.9169 28
3.0002 32
3.0836 29
3.1669 8
3.2503 29
3.3336 28
3.4169 32
3.5003 20
3.5836 11
3.6670 50
3.7503 21
3.8336 29
3.9170 11
4.0003 19
4.0837 16
4.1670 5
4.2503 30
4.3337 31
4.4170 33
4.5004 22
4.5837 29
4.6670 47
4.7504 37
4.8337 15
4.9171 18
5.0004 14
5.0837 21
5.1671 26
5.2504 15
5.3338 30
5.4171 15
5.5004 12
5.5838 16
5.6671 10
5.7505 13
5.8338 27
5.9171 30
6.0005 37
6.0838 6
6.1672 57
6.2505 23
6.3338 34
6.4172 30
6.5005 22
6.5839 19
6.6672 35
6.7505 15
6.8339 26
6.9172 10
7.0006 11
7.0839 9
7.1672 23
7.2506 34
7.3339 31
7.4173 12
7.5006 15
7.5839 19
7.6673 18
7.7506 35
7.8340 15
7.9173 25
8.0006 13
8.0840 21
8.1673 27
8.2507 20
8.3340 53
8.4173 21
8.5007 14
8.5840 40
8.6674 23
8.7507 10
8.8340 18
8.9174 37
9.0007 17
9.0841 27
9.1674 35
9.2507 10
9.3341 32
9.4174 43
9.5008 17
9.5841 8
9.6674 39
9.7508 39
9.8341 14
9.9175 29
10.0008 28
10.0841 27
10.1675 11
10.2508 26
10.3342 15
10.4175 28
10.5008 24
10.5842 6
10.6675 22
10.7509 31
10.8342 11
10.9175 12
11.0009 15
11.0842 22
11.1676 35
11.2509 28
11.3342 47
11.4176 36
11.5009 33
11.5843 30
11.6676 26
11.7509 39
11.8343 48
11.9176 32
12.0010 22
12.0843 12
12.1676 24
12.2510 19
12.3343 34
12.4177 19
12.5010 43
12.5843 55
12.6677 6
12.7510 8
12.8344 48
12.9177 29
13.0010 51
13.0844 40
13.1677 17
13.2511 12
13.3344 14
13.4177 40
13.5011 37
13.5844 22
13.6678 28
13.7511 40
13.8344 20
13.9178 19
14.0011 51
14.0845 14
14.1678 38
14.2511 18
14.3345 6
14.4178 21
14.5012 12
14.5845 13
14.6678 12
14.7512 10
14.8345 60
14.9179 17
15.0012 20
15.0845 17
15.1679 15
15.2512 14
15.3346 29
15.4179 7
15.5012 23
15.5846 44
15.6679 23
15.7513 37
15.8346 52
15.9179 28
16.0013 4
16.0846 10
16.1680 36
16.2513 31
16.3346 24
16.4180 33
16.5013 29
16.5847 14
16.6680 58
16.7513 16
16.8347 31
16.9180 27
17.0014 28
17.0847 20
17.1680 10
17.2514 33
17.3347 35
17.4181 18
17.5014 8
17.5847 21
17.6681 30
17.7514 38
17.8348 25
17.9181 35
18.0014 30
18.0848 32
18.1681 55
18.2515 17
18.3348 17
18.4181 34
18.5015 22
18.5848 24
18.6682 17
18.7515 23
18.8348 42
18.9182 16
19.0015 35
19.0849 27
19.1682 22
19.2515 26
19.3349 41
19.4182 26
19.5016 33
19.5849 34
19.6682 27
19.7516 17
19.8349 21
19.9183 35
20.0016 34
20.0849 21
20.1683 16
20.2516 35
20.3350 17
20.4183 18
20.5016 27
20.5850 34
20.6683 44
20.7517 18
20.8350 22
20.9183 16
21.0017 18
21.0850 22
21.1684 35
21.2517 14
21.3350 19
21.4184 30
21.5017 11
21.5851 33
21.6684 25
21.7517 12
21.8351 16
21.9184 20
22.0018 23
22.0851 45
22.1684 14
22.2518 22
22.3351 30
22.4185 64
22.5018 9
22.5851 46
22.6685 52
22.7518 20
22.8352 35
22.9185 14
23.0018 16
23.0852 33
23.1685 42
23.2519 26
23.3352 21
23.4185 46
23.5019 10
23.5852 34
23.6686 33
23.7519 6
23.8352 27
23.9186 31
24.0019 8
24.0853 27
24.1686 19
24.2519 9
24.3353 37
24.4186 23
24.5020 25
24.5853 24
24.6686 47
24.7520 19
24.8353 68
24.9187 26
25.0020 14
25.0853 58
25.1687 21
25.2520 30
25.3354 40
25.4187 15
25.5020 24
25.5854 31
25.6687 25
25.7521 34
25.8354 34
25.9187 18
26.0021 11
26.0854 18
26.1688 19
26.2521 62
26.3354 10
26.4188 40
26.5021 26
26.5855 14
26.6688 15
26.7521 21
26.8355 27
26.9188 27
27.0022 23
27.0855 23
27.1688 40
27.2522 33
27.3355 47
27.4189 27
27.5022 16
27.5855 29
27.6689 21
27.7522 28
27.8356 51
27.9189 28
28.0022 30
28.0856 25
28.1689 11
28.2523 16
28.3356 24
28.4189 43
28.5023 8
28.5856 5
28.6690 9
28.7523 9
28.8356 0
28.9190 5
29.0023 7
29.0857 6
29.1690 1
29.2523 17
29.3357 1
29.4190 26
29.5024 11
29.5857 7
29.6690 12
29.7524 10
29.8357 20
29.9191 9
30.0024 27
30.0857 8
30.1691 11
30.2524 10
30.3358 3
30.4191 29
30.5024 8
30.5858 21
30.6691 10
30.7525 8
30.8358 3
30.9191 11
31.0025 21
31.0858 4
31.1692 13
31.2525 5
31.3358 8
31.4192 19
31.5025 8
31.5859 7
31.6692 14
31.7525 13
31.8359 12
31.9192 13
32.0026 5
32.0859 2
32.1692 4
32.2526 11
32.3359 16
32.4193 7
32.5026 7
32.5859 10
32.6693 2
32.7526 0
32.8360 7
32.9193 15
33.0026 8
33.0860 16
33.1693 42
33.2527 18
33.3360 21
33.4193 5
33.5027 13
33.5860 1
33.6694 0
33.7527 2
33.8360 8
33.9194 18
34.0027 9
34.0861 16
34.1694 7
34.2527 0
34.3361 7
34.4194 23
34.5028 9
34.5861 0
34.6694 23
34.7528 36
34.8361 6
34.9195 3
35.0028 27
35.0861 1
35.1695 7
35.2528 14
35.3362 44
35.4195 21
35.5028 2
35.5862 22
35.6695 4
35.7529 23
35.8362 19
35.9195 9
36.0029 2
36.0862 2
36.1696 2
36.2529 16
36.3362 7
36.4196 8
36.5029 28
36.5863 4
36.6696 18
36.7529 2
36.8363 11
36.9196 16
37.0030 14
37.0863 6
37.1696 8
37.2530 2
37.3363 850
37.4197 8
37.5030 29
37.5863 17
37.6697 9
37.7530 5
37.8364 8
37.9197 2
38.0030 7
38.0864 18
38.1697 10
38.2531 8
38.3364 10
38.4197 16
38.5031 19
38.5864 6
38.6698 14
38.7531 22
38.8364 9
38.9198 18
39.0031 2
39.0865 12
39.1698 24
39.2531 14
39.3365 26
39.4198 11
39.5032 9
39.5865 10
39.6698 3
39.7532 8
39.8365 4
39.9199 6
40.0032 7
40.0865 2
40.1699 13
40.2532 15
40.3366 18
40.4199 5
40.5032 12
40.5866 10
40.6699 3
40.7533 3
40.8366 4
40.9199 20
41.0033 7
41.0866 7
41.1700 8
41.2533 20
41.3366 5
41.4200 15
41.5033 53
41.5867 9
41.6700 12
41.7533 15
41.8367 7
41.9200 4
42.0034 18
42.0867 23
42.1700 14
42.2534 7
42.3367 6
42.4201 19
42.5034 5
42.5867 8
42.6701 13
42.7534 16
42.8368 6
42.9201 31
43.0034 10
43.0868 3
43.1701 5
43.2535 17
43.3368 9
43.4201 6
43.5035 13
43.5868 17
43.6702 7
43.7535 8
43.8368 22
43.9202 8
44.0035 13
44.0869 9
44.1702 27
44.2535 6
44.3369 18
44.4202 4
44.5036 8
44.5869 6
44.6702 11
44.7536 24
44.8369 18
44.9203 3
45.0036 2
45.0869 5
45.1703 3
45.2536 2
45.3370 12
45.4203 6
45.5036 10
45.5870 30
45.6703 0
45.7537 0
45.8370 7
45.9203 8
46.0037 4
46.0870 10
46.1704 11
46.2537 16
46.3370 11
46.4204 13
46.5037 32
46.5871 5
46.6704 5
46.7537 10
46.8371 3
46.9204 0
47.0038 2
47.0871 13
47.1704 6
47.2538 11
47.3371 21
47.4205 27
47.5038 3
47.5871 2
47.6705 6
47.7538 9
47.8372 2
47.9205 11
48.0038 14
48.0872 11
48.1705 6
48.2539 11
48.3372 4
48.4205 10
48.5039 7
48.5872 7
48.6706 10
48.7539 21
48.8372 17
48.9206 15
49.0039 32
49.0873 6
49.1706 8
49.2539 19
49.3373 16
49.4206 4
49.5040 16
49.5873 24
49.6706 3
49.7540 11
49.8373 5
49.9207 4
50.0040 10
50.0873 29
50.1707 10
50.2540 3
50.3374 11
50.4207 7
50.5040 6
50.5874 7
50.6707 1
50.7541 23
50.8374 12
50.9207 24
51.0041 11
51.0874 13
51.1708 22
51.2541 2
51.3374 9
51.4208 11
51.5041 6
51.5875 22
51.6708 1
51.7541 1
51.8375 7
51.9208 10
52.0042 18
52.0875 21
52.1708 7
52.2542 2
52.3375 24
52.4209 17
52.5042 10
52.5875 15
52.6709 15
52.7542 10
52.8376 34
52.9209 15
53.0042 17
53.0876 19
53.1709 3
53.2543 4
53.3376 25
53.4209 4
53.5043 4
53.5876 1
53.6710 8
53.7543 8
53.8376 7
53.9210 14
54.0043 23
54.0877 7
54.1710 13
54.2543 14
54.3377 9
54.4210 5
54.5044 4
54.5877 10
54.6710 9
54.7544 10
54.8377 16
54.9211 14
55.0044 15
55.0877 3
55.1711 34
55.2544 32
55.3378 8
55.4211 11
55.5044 27
55.5878 17
55.6711 10
55.7545 3
55.8378 20
55.9211 3
56.0045 10
56.0878 5
56.1712 3
56.2545 10
56.3378 13
56.4212 4
56.5045 8
56.5879 19
56.6712 2
56.7545 10
56.8379 8
56.9212 14
57.0046 7
57.0879 7
57.1712 45
57.2546 8
57.3379 24
57.4213 11
57.5046 7
57.5879 4
57.6713 6
57.7546 5
57.8380 35
57.9213 7
58.0046 5
58.0880 18
58.1713 19
58.2547 17
58.3380 25
58.4213 3
58.5047 7
58.5880 23
58.6714 0
58.7547 23
58.8380 5
58.9214 9
59.0047 10
59.0881 3
59.1714 5
59.2547 10
59.3381 32
59.4214 6
59.5048 15
59.5881 3
59.6714 19
59.7548 4
59.8381 13
59.9215 13
60.0048 3
60.0881 6
60.1715 15
60.2548 22
60.3382 12
60.4215 4
60.5048 22
60.5882 8
60.6715 14
60.7549 16
60.8382 2
60.9215 5
61.0049 5
61.0882 9
61.1716 5
61.2549 2
61.3382 22
61.4216 10
61.5049 16
61.5883 14
61.6716 21
61.7549 9
61.8383 13
61.9216 11
62.0050 6
62.0883 16
62.1716 4
62.2550 19
62.3383 5
62.4217 2
62.5050 32
62.5883 9
62.6717 10
62.7550 3
62.8384 6
62.9217 5
63.0050 8
63.0884 18
63.1717 8
63.2551 6
63.3384 10
63.4217 19
63.5051 4
63.5884 5
63.6718 1
63.7551 1
63.8384 10
63.9218 10
64.0051 10
64.0885 11
64.1718 4
64.2551 11
64.3385 7
64.4218 14
64.5052 16
64.5885 20
64.6718 4
64.7552 5
64.8385 3
64.9219 8
65.0052 4
65.0885 7
65.1719 0
65.2552 11
65.3386 21
65.4219 16
65.5052 10
65.5886 21
65.6719 7
65.7553 9
65.8386 4
65.9219 13
66.0053 3
66.0886 11
66.1720 4
66.2553 9
66.3386 7
66.4220 14
66.5053 7
66.5887 8
66.6720 8
66.7553 17
66.8387 18
66.9220 17
67.0054 23
67.0887 19
67.1720 9
67.2554 0
67.3387 12
67.4221 2
67.5054 19
67.5887 19
67.6721 4
67.7554 15
67.8388 14
67.9221 9
68.0054 13
68.0888 14
68.1721 16
68.2555 11
68.3388 14
68.4221 26
68.5055 14
68.5888 12
68.6722 31
68.7555 23
68.8388 13
68.9222 23
69.0055 21
69.0889 5
69.1722 9
69.2555 14
69.3389 32
69.4222 24
69.5056 8
69.5889 31
69.6722 35
69.7556 29
69.8389 12
69.9223 18
70.0056 8
70.0889 0
70.1723 5
70.2556 18
70.3390 11
70.4223 10
70.5056 6
70.5890 15
70.6723 16
70.7557 11
70.8390 12
70.9223 28
71.0057 10
71.0890 8
71.1724 17
71.2557 11
71.3390 22
71.4224 8
71.5057 12
71.5891 18
71.6724 10
71.7557 30
71.8391 11
71.9224 28
72.0058 16
72.0891 13
72.1724 21
72.2558 11
72.3391 22
72.4225 18
72.5058 36
72.5891 2
72.6725 7
72.7558 14
72.8392 31
72.9225 16
73.0058 10
73.0892 32
73.1725 6
73.2559 25
73.3392 16
73.4225 22
73.5059 1
73.5892 6
73.6726 22
73.7559 5
73.8392 25
73.9226 0
74.0059 3
74.0893 8
74.1726 17
74.2559 0
74.3393 17
74.4226 8
74.5060 5
74.5893 10
74.6726 20
74.7560 13
74.8393 13
74.9227 20
75.0060 9
75.0893 22
75.1727 10
75.2560 19
75.3394 25
75.4227 11
75.5060 14
75.5894 17
75.6727 10
75.7561 8
75.8394 20
75.9227 7
76.0061 35
76.0894 19
76.1728 13
76.2561 7
76.3394 4
76.4228 6
76.5061 7
76.5895 10
76.6728 36
76.7561 28
76.8395 4
76.9228 17
77.0062 4
77.0895 1
77.1728 18
77.2562 12
77.3395 16
77.4229 29
77.5062 13
77.5895 16
77.6729 16
77.7562 23
77.8396 33
77.9229 24
78.0062 11
78.0896 24
78.1729 33
78.2563 41
78.3396 35
78.4229 33
78.5063 29
78.5896 40
78.6730 24
78.7563 18
78.8396 15
78.9230 6
79.0063 16
79.0897 16
79.1730 35
79.2563 8
79.3397 21
79.4230 8
79.5064 21
79.5897 7
79.6730 11
79.7564 3
79.8397 15
79.9231 7
80.0064 25
80.0897 15
80.1731 9
80.2564 6
80.3398 23
80.4231 8
80.5064 19
80.5898 49
80.6731 19
80.7565 23
80.8398 12
80.9231 29
81.0065 33
81.0898 36
81.1732 13
81.2565 38
81.3398 22
81.4232 7
81.5065 23
81.5899 16
81.6732 21
81.7565 35
81.8399 27
81.9232 9
82.0066 5
82.0899 22
82.1732 7
82.2566 9
82.3399 22
82.4233 25
82.5066 9
82.5899 23
82.6733 12
82.7566 10
82.8400 9
82.9233 6
83.0066 14
83.0900 3
83.1733 16
83.2567 17
83.3400 10
83.4233 1
83.5067 6
83.5900 3
83.6734 8
83.7567 6
83.8400 11
83.9234 7
84.0067 29
84.0901 13
84.1734 15
84.2567 32
84.3401 12
84.4234 13
84.5068 6
84.5901 7
84.6734 11
84.7568 24
84.8401 13
84.9235 13
85.0068 9
85.0901 11
85.1735 38
85.2568 32
85.3402 4
85.4235 9
85.5068 12
85.5902 10
85.6735 16
85.7569 9
85.8402 7
85.9235 7
86.0069 19
86.0902 33
86.1736 24
86.2569 13
86.3402 45
86.4236 23
86.5069 40
86.5903 32
86.6736 27
86.7569 33
86.8403 62
86.9236 58
87.0070 34
87.0903 57
87.1736 59
87.2570 37
87.3403 40
87.4237 27
87.5070 49
87.5903 26
87.6737 8
87.7570 36
87.8404 25
87.9237 22
88.0070 22
88.0904 9
88.1737 16
88.2571 25
88.3404 9
88.4237 11
88.5071 28
88.5904 23
88.6738 18
88.7571 9
88.8404 46
88.9238 28
89.0071 26
89.0905 12
89.1738 20
89.2571 28
89.3405 64
89.4238 44
89.5072 46
89.5905 24
89.6738 28
89.7572 64
89.8405 41
89.9239 59
90.0072 32
90.0905 41
90.1739 18
90.2572 58
90.3406 38
90.4239 57
90.5072 30
90.5906 24
90.6739 19
90.7573 36
90.8406 19
90.9239 57
91.0073 27
91.0906 15
91.1740 15
91.2573 35
91.3406 3
91.4240 10
91.5073 12
91.5907 16
91.6740 12
91.7573 7
91.8407 12
91.9240 6
92.0074 5
92.0907 11
92.1740 16
92.2574 5
92.3407 24
92.4241 9
92.5074 20
92.5907 19
92.6741 35
92.7574 63
92.8408 27
92.9241 23
93.0074 19
93.0908 20
93.1741 22
93.2575 8
93.3408 22
93.4241 32
93.5075 25
93.5908 37
93.6742 35
93.7575 33
93.8408 9
93.9242 24
94.0075 32
94.0909 22
94.1742 23
94.2575 16
94.3409 26
94.4242 20
94.5076 14
94.5909 9
94.6742 32
94.7576 18
94.8409 30
94.9243 27
95.0076 42
95.0909 26
95.1743 48
95.2576 52
95.3410 27
95.4243 54
95.5076 67
95.5910 58
95.6743 71
95.7577 62
95.8410 70
95.9243 81
96.0077 66
96.0910 85
96.1744 63
96.2577 49
96.3410 70
96.4244 44
96.5077 47
96.5911 31
96.6744 23
96.7577 22
96.8411 25
96.9244 35
97.0078 21
97.0911 25
97.1744 5
97.2578 6
97.3411 10
97.4245 22
97.5078 36
97.5911 16
97.6745 24
97.7578 33
97.8412 25
97.9245 38
98.0078 56
98.0912 83
98.1745 67
98.2579 47
98.3412 58
98.4245 73
98.5079 57
98.5912 77
98.6746 60
98.7579 54
98.8412 40
98.9246 65
99.0079 61
99.0913 55
99.1746 38
99.2579 72
99.3413 58
99.4246 18
99.5080 30
99.5913 20
99.6746 16
99.7580 24
99.8413 20
99.9247 19
100.0080 16
100.0913 19
100.1747 6
100.2580 19
100.3414 32
100.4247 23
100.5080 9
100.5914 31
100.6747 31
100.7581 11
100.8414 8
100.9247 30
101.0081 27
101.0914 15
101.1748 11
101.2581 21
101.3414 24
101.4248 17
101.5081 19
101.5915 27
101.6748 31
101.7581 38
101.8415 37
101.9248 37
102.0082 17
102.0915 32
102.1748 26
102.2582 44
102.3415 42
102.4249 33
102.5082 20
102.5915 28
102.6749 32
102.7582 41
102.8416 16
102.9249 25
103.0082 11
103.0916 7
103.1749 19
103.2583 8
103.3416 47
103.4249 2
103.5083 8
103.5916 32
103.6750 25
103.7583 16
103.8416 12
103.9250 44
104.0083 27
104.0917 64
104.1750 55
104.2583 46
104.3417 98
104.4250 92
104.5084 69
104.5917 83
104.6750 85
104.7584 101
104.8417 82
104.9251 100
105.0084 68
105.0917 101
105.1751 78
105.2584 72
105.3418 120
105.4251 52
105.5084 53
105.5918 51
105.6751 58
105.7585 46
105.8418 50
105.9251 17
106.0085 29
106.0918 11
106.1752 11
106.2585 19
106.3418 22
106.4252 31
106.5085 17
106.5919 21
106.6752 22
106.7585 34
106.8419 36
106.9252 39
107.0086 51
107.0919 77
107.1752 46
107.2586 58
107.3419 60
107.4253 94
107.5086 75
107.5919 83
107.6753 61
107.7586 86
107.8420 124
107.9253 73
108.0086 57
108.0920 63
108.1753 87
108.2587 65
108.3420 43
108.4253 52
108.5087 33
108.5920 28
108.6754 40
108.7587 35
108.8420 21
108.9254 24
109.0087 19
109.0921 32
109.1754 27
109.2587 29
109.3421 10
109.4254 19
109.5088 3
109.5921 14
109.6754 8
109.7588 13
109.8421 5
109.9255 22
110.0088 37
110.0921 23
110.1755 17
110.2588 30
110.3422 18
110.4255 12
110.5088 22
110.5922 17
110.6755 30
110.7589 15
110.8422 20
110.9255 23
111.0089 26
111.0922 32
111.1756 7
111.2589 16
111.3422 27
111.4256 41
111.5089 44
111.5923 23
111.6756 16
111.7589 13
111.8423 20
111.9256 23
112.0090 7
112.0923 5
112.1756 15
112.2590 17
112.3423 23
112.4257 23
112.5090 13
112.5923 42
112.6757 55
112.7590 39
112.8424 61
112.9257 57
113.0090 48
113.0924 90
113.1757 49
113.2591 72
113.3424 81
113.4257 91
113.5091 96
113.5924 80
113.6758 96
113.7591 80
113.8424 71
113.9258 103
114.0091 98
114.0925 76
114.1758 92
114.2591 68
114.3425 68
114.4258 79
114.5092 42
114.5925 39
114.6758 36
114.7592 17
114.8425 22
114.9259 22
115.0092 15
115.0925 6
115.1759 20
115.2592 22
115.3426 21
115.4259 34
115.5092 30
115.5926 68
115.6759 41
115.7593 49
115.8426 67
115.9259 64
116.0093 91
116.0926 80
116.1760 98
116.2593 107
116.3426 118
116.4260 90
116.5093 96
116.5927 119
116.6760 107
116.7593 97
116.8427 90
116.9260 64
117.0094 72
117.0927 77
117.1760 83
117.2594 79
117.3427 62
117.4261 61
117.5094 40
117.5927 40
117.6761 34
117.7594 21
117.8428 36
117.9261 19
118.0094 26
118.0928 30
118.1761 23
118.2595 21
118.3428 25
118.4261 7
118.5095 14
118.5928 10
118.6762 18
118.7595 16
118.8428 24
118.9262 21
119.0095 17
119.0929 18
119.1762 23
119.2595 20
119.3429 18
119.4262 41
119.5096 21
119.5929 36
119.6762 34
119.7596 27
119.8429 24
119.9263 25
120.0096 34
120.0929 60
120.1763 40
120.2596 18
120.3430 23
120.4263 28
120.5096 12
120.5930 23
120.6763 28
120.7597 35
120.8430 30
120.9263 18
121.0097 16
121.0930 20
121.1764 16
121.2597 35
121.3430 17
121.4264 27
121.5097 50
121.5931 51
121.6764 48
121.7597 65
121.8431 65
121.9264 85
122.0098 135
122.0931 124
122.1764 79
122.2598 123
122.3431 137
122.4265 156
122.5098 138
122.5931 136
122.6765 109
122.7598 140
122.8432 122
122.9265 130
123.0098 96
123.0932 112
123.1765 88
123.2599 84
123.3432 66
123.4265 65
123.5099 24
123.5932 20
123.6766 24
123.7599 14
123.8432 7
123.9266 15
124.0099 7
124.0933 26
124.1766 60
124.2599 24
124.3433 72
124.4266 72
124.5100 87
124.5933 104
124.6766 131
124.7600 130
124.8433 142
124.9267 164
125.0100 169
125.0933 159
125.1767 162
125.2600 148
125.3434 153
125.4267 155
125.5100 153
125.5934 152
125.6767 156
125.7601 135
125.8434 108
125.9267 80
126.0101 94
126.0934 77
126.1768 83
126.2601 40
126.3434 56
126.4268 55
126.5101 34
126.5935 38
126.6768 17
126.7601 6
126.8435 33
126.9268 36
127.0102 27
127.0935 27
127.1768 18
127.2602 28
127.3435 48
127.4269 32
127.5102 19
127.5935 7
127.6769 30
127.7602 35
127.8436 24
127.9269 23
128.0102 26
128.0936 57
128.1769 32
128.2603 55
128.3436 63
128.4269 40
128.5103 33
128.5936 41
128.6770 34
128.7603 34
128.8436 27
128.9270 27
129.0103 44
129.0937 11
129.1770 32
129.2603 32
129.3437 44
129.4270 15
129.5104 9
129.5937 17
129.6770 17
129.7604 24
129.8437 8
129.9271 14
130.0104 25
130.0937 31
130.1771 34
130.2604 9
130.3438 77
130.4271 35
130.5104 38
130.5938 72
130.6771 85
130.7605 75
130.8438 125
130.9271 125
131.0105 97
131.0938 107
131.1772 145
131.2605 128
131.3438 186
131.4272 148
131.5105 187
131.5939 181
131.6772 125
131.7605 113
131.8439 125
131.9272 116
132.0106 101
132.0939 88
132.1772 79
132.2606 78
132.3439 49
132.4273 33
132.5106 30
132.5939 39
132.6773 28
132.7606 7
132.8440 4
132.9273 20
133.0106 18
133.0940 38
133.1773 40
133.2607 46
133.3440 99
133.4273 90
133.5107 95
133.5940 90
133.6774 164
133.7607 153
133.8440 156
133.9274 180
134.0107 210
134.0941 207
134.1774 204
134.2607 213
134.3441 195
134.4274 242
134.5108 198
134.5941 166
134.6774 156
134.7608 127
134.8441 130
134.9275 95
135.0108 97
135.0941 56
135.1775 75
135.2608 79
135.3442 42
135.4275 20
135.5108 22
135.5942 19
135.6775 25
135.7609 17
135.8442 16
135.9275 16
136.0109 36
136.0942 22
136.1776 38
136.2609 13
136.3442 27
136.4276 56
136.5109 28
136.5943 28
136.6776 33
136.7609 42
136.8443 36
136.9276 20
137.0110 27
137.0943 20
137.1776 23
137.2610 32
137.3443 28
137.4277 35
137.5110 45
137.5943 17
137.6777 23
137.7610 27
137.8444 29
137.9277 26
138.0110 34
138.0944 29
138.1777 28
138.2611 30
138.3444 26
138.4277 32
138.5111 28
138.5944 38
138.6778 30
138.7611 38
138.8444 35
138.9278 33
139.0111 59
139.0945 40
139.1778 58
139.2611 76
139.3445 53
139.4278 91
139.5112 80
139.5945 88
139.6778 114
139.7612 97
139.8445 123
139.9279 150
140.0112 121
140.0945 94
140.1779 113
140.2612 109
140.3446 105
140.4279 107
140.5112 101
140.5946 97
140.6779 90
140.7613 80
140.8446 56
140.9279 65
141.0113 48
141.0946 35
141.1780 27
141.2613 31
141.3446 25
141.4280 22
141.5113 31
141.5947 24
141.6780 11
141.7613 37
141.8447 76
141.9280 73
142.0114 81
142.0947 95
142.1780 139
142.2614 149
142.3447 119
142.4281 177
142.5114 176
142.5947 201
142.6781 217
142.7614 233
142.8448 198
142.9281 219
143.0114 191
143.0948 174
143.1781 184
143.2615 193
143.3448 152
143.4281 117
143.5115 125
143.5948 109
143.6782 64
143.7615 75
143.8448 65
143.9282 56
144.0115 56
144.0949 29
144.1782 25
144.2615 21
144.3449 27
144.4282 36
144.5116 12
144.5949 35
144.6782 39
144.7616 30
144.8449 25
144.9283 14
145.0116 25
145.0949 14
145.1783 44
145.2616 59
145.3450 40
145.4283 26
145.5116 33
145.5950 53
145.6783 50
145.7617 62
145.8450 56
145.9283 49
146.0117 34
146.0950 45
146.1784 27
146.2617 34
146.3450 40
146.4284 52
146.5117 28
146.5951 44
146.6784 26
146.7617 35
146.8451 16
146.9284 30
147.0118 22
147.0951 26
147.1784 15
147.2618 39
147.3451 29
147.4285 31
147.5118 19
147.5951 38
147.6785 41
147.7618 25
147.8452 44
147.9285 50
148.0118 53
148.0952 60
148.1785 76
148.2619 92
148.3452 107
148.4285 109
148.5119 112
148.5952 95
148.6786 115
148.7619 127
148.8452 124
148.9286 114
149.0119 120
149.0953 130
149.1786 83
149.2619 143
149.3453 88
149.4286 73
149.5120 42
149.5953 46
149.6786 39
149.7620 22
149.8453 24
149.9287 20
150.0120 24
150.0953 22
150.1787 21
150.2620 28
150.3454 42
150.4287 43
150.5120 83
150.5954 107
150.6787 119
150.7621 139
150.8454 173
150.9287 209
151.0121 193
151.0954 176
151.1788 259
151.2621 213
151.3454 287
151.4288 229
151.5121 236
151.5955 262
151.6788 234
151.7621 218
151.8455 209
151.9288 235
152.0122 153
152.0955 167
152.1788 165
152.2622 111
152.3455 85
152.4289 58
152.5122 65
152.5955 55
152.6789 39
152.7622 43
152.8456 25
152.9289 28
153.0122 13
153.0956 22
153.1789 27
153.2623 11
153.3456 22
153.4289 47
153.5123 46
153.5956 45
153.6790 51
153.7623 69
153.8456 72
153.9290 69
154.0123 71
154.0957 61
154.1790 95
154.2623 67
154.3457 78
154.4290 65
154.5124 68
154.5957 59
154.6790 67
154.7624 50
154.8457 62
154.9291 30
155.0124 28
155.0957 31
155.1791 24
155.2624 30
155.3458 14
155.4291 22
155.5124 22
155.5958 17
155.6791 9
155.7625 12
155.8458 21
155.9291 14
156.0125 15
156.0958 30
156.1792 32
156.2625 14
156.3458 23
156.4292 31
156.5125 48
156.5959 30
156.6792 63
156.7625 65
156.8459 77
156.9292 79
157.0126 80
157.0959 123
157.1792 123
157.2626 134
157.3459 143
157.4293 172
157.5126 151
157.5959 137
157.6793 182
157.7626 161
157.8460 130
157.9293 96
158.0126 105
158.0960 91
158.1793 74
158.2627 50
158.3460 56
158.4293 24
158.5127 22
158.5960 47
158.6794 18
158.7627 13
158.8460 23
158.9294 62
159.0127 78
159.0961 49
159.1794 89
159.2627 93
159.3461 81
159.4294 151
159.5128 174
159.5961 213
159.6794 220
159.7628 207
159.8461 272
159.9295 290
160.0128 272
160.0961 294
160.1795 340
160.2628 306
160.3462 330
160.4295 289
160.5128 242
160.5962 263
160.6795 241
160.7629 188
160.8462 168
160.9295 139
161.0129 115
161.0962 96
161.1796 111
161.2629 76
161.3462 61
161.4296 68
161.5129 51
161.5963 23
161.6796 39
161.7629 9
161.8463 44
161.9296 48
162.0130 52
162.0963 73
162.1796 79
162.2630 87
162.3463 102
162.4297 80
162.5130 66
162.5963 93
162.6797 101
162.7630 109
162.8464 102
162.9297 73
163.0130 87
163.0964 92
163.1797 86
163.2631 64
163.3464 52
163.4297 70
163.5131 40
163.5964 47
163.6798 34
163.7631 34
163.8464 30
163.9298 41
164.0131 34
164.0965 40
164.1798 34
164.2631 67
164.3465 34
164.4298 23
164.5132 27
164.5965 28
164.6798 36
164.7632 37
164.8465 49
164.9299 25
165.0132 60
165.0965 38
165.1799 40
165.2632 63
165.3466 125
165.4299 82
165.5132 66
165.5966 104
165.6799 111
165.7633 85
165.8466 85
165.9299 90
166.0133 100
166.0966 123
166.1800 122
166.2633 128
166.3466 105
166.4300 112
166.5133 103
166.5967 101
166.6800 116
166.7633 71
166.8467 72
166.9300 53
167.0134 71
167.0967 54
167.1800 40
167.2634 35
167.3467 32
167.4301 41
167.5134 50
167.5967 47
167.6801 94
167.7634 97
167.8468 108
167.9301 112
168.0134 135
168.0968 181
168.1801 223
168.2635 271
168.3468 307
168.4301 259
168.5135 348
168.5968 320
168.6802 299
168.7635 398
168.8468 351
168.9302 371
169.0135 377
169.0969 371
169.1802 290
169.2635 287
169.3469 252
169.4302 246
169.5136 205
169.5969 187
169.6802 149
169.7636 129
169.8469 80
169.9303 71
170.0136 80
170.0969 34
170.1803 23
170.2636 16
170.3470 28
170.4303 28
170.5136 30
170.5970 20
170.6803 44
170.7637 55
170.8470 69
170.9303 106
171.0137 142
171.0970 156
171.1804 134
171.2637 155
171.3470 152
171.4304 167
171.5137 160
171.5971 165
171.6804 156
171.7637 118
171.8471 150
171.9304 109
172.0138 124
172.0971 97
172.1804 87
172.2638 54
172.3471 67
172.4305 50
172.5138 69
172.5971 39
172.6805 16
172.7638 20
172.8472 15
172.9305 25
173.0138 25
173.0972 26
173.1805 22
173.2639 39
173.3472 37
173.4305 55
173.5139 58
173.5972 36
173.6806 44
173.7639 39
173.8472 40
173.9306 32
174.0139 50
174.0973 64
174.1806 37
174.2639 68
174.3473 53
174.4306 81
174.5140 76
174.5973 71
174.6806 97
174.7640 106
174.8473 135
174.9307 90
175.0140 105
175.0973 124
175.1807 106
175.2640 81
175.3474 92
175.4307 48
175.5140 80
175.5974 70
175.6807 81
175.7641 43
175.8474 23
175.9307 32
176.0141 28
176.0974 44
176.1808 42
176.2641 59
176.3474 40
176.4308 88
176.5141 120
176.5975 135
176.6808 158
176.7641 196
176.8475 215
176.9308 261
177.0142 317
177.0975 315
177.1808 344
177.2642 390
177.3475 382
177.4309 398
177.5142 421
177.5975 376
177.6809 408
177.7642 322
177.8476 339
177.9309 299
178.0142 270
178.0976 259
178.1809 209
178.2643 203
178.3476 122
178.4309 132
178.5143 51
178.5976 63
178.6810 48
178.7643 20
178.8476 14
178.9310 9
179.0143 23
179.0977 29
179.1810 63
179.2643 60
179.3477 103
179.4310 118
179.5144 144
179.5977 148
179.6810 160
179.7644 190
179.8477 219
179.9311 253
180.0144 244
180.0977 230
180.1811 234
180.2644 229
180.3478 190
180.4311 220
180.5144 161
180.5978 170
180.6811 157
180.7645 180
180.8478 113
180.9311 104
181.0145 74
181.0978 53
181.1812 76
181.2645 33
181.3478 31
181.4312 56
181.5145 36
181.5979 31
181.6812 41
181.7645 39
181.8479 25
181.9312 54
182.0146 50
182.0979 49
182.1812 42
182.2646 48
182.3479 49
182.4313 25
182.5146 59
182.5979 36
182.6813 47
182.7646 38
182.8480 40
182.9313 52
183.0146 58
183.0980 66
183.1813 62
183.2647 86
183.3480 89
183.4313 85
183.5147 115
183.5980 138
183.6814 157
183.7647 121
183.8480 152
183.9314 108
184.0147 125
184.0981 106
184.1814 112
184.2647 136
184.3481 127
184.4314 57
184.5148 60
184.5981 47
184.6814 50
184.7648 46
184.8481 65
184.9315 51
185.0148 85
185.0981 90
185.1815 127
185.2648 160
185.3482 179
185.4315 222
185.5148 281
185.5982 291
185.6815 384
185.7649 415
185.8482 426
185.9315 444
186.0149 564
186.0982 477
186.1816 529
186.2649 551
186.3482 541
186.4316 476
186.5149 449
186.5983 493
186.6816 347
186.7649 444
186.8483 292
186.9316 307
187.0150 207
187.0983 166
187.1816 150
187.2650 124
187.3483 61
187.4317 44
187.5150 17
187.5983 24
187.6817 53
187.7650 29
187.8484 39
187.9317 66
188.0150 70
188.0984 110
188.1817 175
188.2651 181
188.3484 207
188.4317 219
188.5151 290
188.5984 264
188.6818 302
188.7651 309
188.8484 342
188.9318 327
189.0151 345
189.0985 306
189.1818 282
189.2651 288
189.3485 241
189.4318 228
189.5152 211
189.5985 185
189.6818 168
189.7652 149
189.8485 92
189.9319 100
190.0152 87
190.0985 111
190.1819 68
190.2652 58
190.3486 63
190.4319 42
190.5152 47
190.5986 60
190.6819 35
190.7653 35
190.8486 44
190.9319 30
191.0153 42
191.0986 25
191.1820 21
191.2653 16
191.3486 19
191.4320 44
191.5153 28
191.5987 21
191.6820 38
191.7653 42
191.8487 47
191.9320 50
192.0154 62
192.0987 51
192.1820 73
192.2654 82
192.3487 87
192.4321 77
192.5154 62
192.5987 48
192.6821 47
192.7654 82
192.8488 46
192.9321 92
193.0154 41
193.0988 60
193.1821 59
193.2655 54
193.3488 50
193.4321 103
193.5155 92
193.5988 102
193.6822 107
193.7655 196
193.8488 224
193.9322 262
194.0155 281
194.0989 307
194.1822 376
194.2655 397
194.3489 515
194.4322 475
194.5156 534
194.5989 566
194.6822 514
194.7656 545
194.8489 482
194.9323 574
195.0156 556
195.0989 506
195.1823 473
195.2656 428
195.3490 372
195.4323 287
195.5156 245
195.5990 182
195.6823 133
195.7657 161
195.8490 47
195.9323 49
196.0157 29
196.0990 47
196.1824 46
196.2657 42
196.3490 74
196.4324 120
196.5157 164
196.5991 197
196.6824 242
196.7657 346
196.8491 384
196.9324 449
197.0158 447
197.0991 491
197.1824 502
197.2658 535
197.3491 536
197.4325 553
197.5158 513
197.5991 522
197.6825 431
197.7658 460
197.8492 396
197.9325 375
198.0158 334
198.0992 222
198.1825 189
198.2659 171
198.3492 144
198.4325 127
198.5159 95
198.5992 69
198.6826 48
198.7659 33
198.8492 41
198.9326 50
199.0159 23
199.0993 49
199.1826 58
199.2659 32
199.3493 37
199.4326 53
199.5160 68
199.5993 42
199.6826 38
199.7660 30
199.8493 30
199.9327 47
200.0160 20
200.0993 32
200.1827 26
200.2660 34
200.3494 16
200.4327 28
200.5160 21
200.5994 26
200.6827 39
200.7661 72
200.8494 81
200.9327 74
201.0161 57
201.0994 73
201.1828 71
201.2661 72
201.3494 55
201.4328 62
201.5161 59
201.5995 42
201.6828 48
201.7661 82
201.8495 52
201.9328 68
202.0162 88
202.0995 96
202.1828 100
202.2662 177
202.3495 259
202.4329 314
202.5162 329
202.5995 393
202.6829 434
202.7662 498
202.8496 583
202.9329 616
203.0162 606
203.0996 743
203.1829 697
203.2663 704
203.3496 768
203.4329 698
203.5163 685
203.5996 635
203.6830 522
203.7663 526
203.8496 452
203.9330 437
204.0163 311
204.0997 259
204.1830 263
204.2663 118
204.3497 83
204.4330 68
204.5164 64
204.5997 37
204.6830 26
204.7664 40
204.8497 71
204.9331 133
205.0164 213
205.0997 265
205.1831 402
205.2664 355
205.3498 482
205.4331 538
205.5164 586
205.5998 687
205.6831 710
205.7665 779
205.8498 719
205.9331 706
206.0165 788
206.0998 740
206.1832 671
206.2665 610
206.3498 533
206.4332 543
206.5165 474
206.5999 417
206.6832 332
206.7665 305
206.8499 190
206.9332 182
207.0166 133
207.0999 92
207.1832 99
207.2666 80
207.3499 57
207.4333 78
207.5166 47
207.5999 46
207.6833 77
207.7666 64
207.8500 84
207.9333 88
208.0166 79
208.1000 77
208.1833 94
208.2667 104
208.3500 103
208.4333 63
208.5167 72
208.6000 74
208.6834 53
208.7667 33
208.8500 46
208.9334 38
209.0167 43
209.1001 47
209.1834 54
209.2667 65
209.3501 57
209.4334 86
209.5168 67
209.6001 105
209.6834 86
209.7668 98
209.8501 115
209.9335 105
210.0168 104
210.1001 95
210.1835 89
210.2668 71
210.3502 58
210.4335 70
210.5168 90
210.6002 71
210.6835 87
210.7669 113
210.8502 124
210.9335 143
211.0169 190
211.1002 249
211.1836 290
211.2669 348
211.3502 437
211.4336 419
211.5169 558
211.6003 580
211.6836 645
211.7669 715
211.8503 725
211.9336 698
212.0170 757
212.1003 766
212.1836 746
212.2670 749
212.3503 636
212.4337 583
212.5170 470
212.6003 498
212.6837 376
212.7670 283
212.8504 197
212.9337 177
213.0170 125
213.1004 104
213.1837 60
213.2671 44
213.3504 58
213.4337 99
213.5171 152
213.6004 224
213.6838 265
213.7671 363
213.8504 456
213.9338 500
214.0171 646
214.1005 766
214.1838 872
214.2671 858
214.3505 952
214.4338 1175
214.5172 1062
214.6005 1069
214.6838 918
214.7672 1048
214.8505 925
214.9339 857
215.0172 777
215.1005 828
215.1839 672
215.2672 590
215.3506 471
215.4339 394
215.5172 340
215.6006 267
215.6839 187
215.7673 131
215.8506 109
215.9339 53
216.0173 50
216.1006 35
216.1840 14
216.2673 56
216.3506 62
216.4340 61
216.5173 89
216.6007 118
216.6840 82
216.7673 109
216.8507 131
216.9340 145
217.0174 107
217.1007 116
217.1840 135
217.2674 92
217.3507 77
217.4341 82
217.5174 62
217.6007 55
217.6841 40
217.7674 23
217.8508 50
217.9341 25
218.0174 35
218.1008 28
218.1841 36
218.2675 42
218.3508 82
218.4341 54
218.5175 61
218.6008 46
218.6842 49
218.7675 63
218.8508 63
218.9342 61
219.0175 47
219.1009 85
219.1842 66
219.2675 90
219.3509 123
219.4342 134
219.5176 192
219.6009 246
219.6842 318
219.7676 311
219.8509 426
219.9343 539
220.0176 563
220.1009 621
220.1843 745
220.2676 812
220.3510 781
220.4343 831
220.5176 843
220.6010 854
220.6843 781
220.7677 768
220.8510 699
220.9343 703
221.0177 624
221.1010 498
221.1844 407
221.2677 375
221.3510 230
221.4344 163
221.5177 114
221.6011 76
221.6844 35
221.7677 53
221.8511 47
221.9344 90
222.0178 148
222.1011 227
222.1844 340
222.2678 488
222.3511 554
222.4345 750
222.5178 819
222.6011 956
222.6845 1071
222.7678 1205
222.8512 1270
222.9345 1334
223.0178 1367
223.1012 1427
223.1845 1372
223.2679 1317
223.3512 1197
223.4345 1084
223.5179 1027
223.6012 919
223.6846 792
223.7679 688
223.8512 642
223.9346 457
224.0179 363
224.1013 312
224.1846 279
224.2679 158
224.3513 118
224.4346 81
224.5180 83
224.6013 83
224.6846 75
224.7680 87
224.8513 101
224.9347 133
225.0180 145
225.1013 190
225.1847 207
225.2680 196
225.3514 177
225.4347 238
225.5180 213
225.6014 228
225.6847 224
225.7681 169
225.8514 201
225.9347 165
226.0181 156
226.1014 108
226.1848 110
226.2681 90
226.3514 105
226.4348 79
226.5181 91
226.6015 74
226.6848 73
226.7681 61
226.8515 74
226.9348 92
227.0182 82
227.1015 72
227.1848 87
227.2682 76
227.3515 94
227.4349 96
227.5182 81
227.6015 65
227.6849 105
227.7682 119
227.8516 145
227.9349 178
228.0182 165
228.1016 272
228.1849 352
228.2683 418
228.3516 430
228.4349 522
228.5183 610
228.6016 667
228.6850 760
228.7683 746
228.8516 797
228.9350 896
229.0183 904
229.1017 883
229.1850 808
229.2683 788
229.3517 774
229.4350 761
229.5184 663
229.6017 583
229.6850 411
229.7684 358
229.8517 298
229.9351 186
230.0184 126
230.1017 69
230.1851 46
230.2684 53
230.3518 66
230.4351 108
230.5184 248
230.6018 286
230.6851 404
230.7685 653
230.8518 742
230.9351 827
231.0185 1037
231.1018 1266
231.1852 1369
231.2685 1521
231.3518 1669
231.4352 1600
231.5185 1707
231.6019 1833
231.6852 1941
231.7685 1850
231.8519 1751
231.9352 1639
232.0186 1508
232.1019 1325
232.1852 1283
232.2686 1071
232.3519 985
232.4353 875
232.5186 668
232.6019 469
232.6853 403
232.7686 284
232.8520 231
232.9353 137
233.0186 113
233.1020 72
233.1853 75
233.2687 105
233.3520 86
233.4353 111
233.5187 121
233.6020 209
233.6854 264
233.7687 237
233.8520 336
233.9354 353
234.0187 327
234.1021 362
234.1854 314
234.2687 353
234.3521 349
234.4354 368
234.5188 356
234.6021 324
234.6854 299
234.7688 269
234.8521 257
234.9355 249
235.0188 197
235.1021 207
235.1855 193
235.2688 166
235.3522 214
235.4355 213
235.5188 177
235.6022 186
235.6855 167
235.7689 232
235.8522 212
235.9355 212
236.0189 200
236.1022 255
236.1856 286
236.2689 228
236.3522 260
236.4356 328
236.5189 382
236.6023 396
236.6856 452
236.7689 450
236.8523 547
236.9356 612
237.0190 638
237.1023 743
237.1856 797
237.2690 780
237.3523 825
237.4357 852
237.5190 844
237.6023 833
237.6857 754
237.7690 789
237.8524 648
237.9357 570
238.0190 486
238.1024 389
238.1857 353
238.2691 235
238.3524 151
238.4357 121
238.5191 77
238.6024 68
238.6858 72
238.7691 144
238.8524 245
238.9358 322
239.0191 404
239.1025 591
239.1858 740
239.2691 1066
239.3525 1164
239.4358 1405
239.5192 1721
239.6025 1880
239.6858 2089
239.7692 2197
239.8525 2280
239.9359 2362
240.0192 2443
240.1025 2510
240.1859 2419
240.2692 2326
240.3526 2251
240.4359 2089
240.5192 1968
240.6026 1646
240.6859 1422
240.7693 1281
240.8526 1119
240.9359 886
241.0193 694
241.1026 479
241.1860 396
241.2693 244
241.3526 177
241.4360 138
241.5193 89
241.6027 103
241.6860 135
241.7693 175
241.8527 231
241.9360 297
242.0194 366
242.1027 542
242.1860 521
242.2694 510
242.3527 618
242.4361 669
242.5194 654
242.6027 671
242.6861 622
242.7694 635
242.8528 523
242.9361 551
243.0194 494
243.1028 430
243.1861 423
243.2695 411
243.3528 363
243.4361 304
243.5195 287
243.6028 311
243.6862 257
243.7695 292
243.8528 258
243.9362 259
244.0195 284
244.1029 232
244.1862 301
244.2695 290
244.3529 265
244.4362 244
244.5196 236
244.6029 261
244.6862 224
244.7696 232
244.8529 251
244.9363 240
245.0196 238
245.1029 289
245.1863 341
245.2696 390
245.3530 583
245.4363 590
245.5196 625
245.6030 820
245.6863 819
245.7697 911
245.8530 1007
245.9363 1031
246.0197 1131
246.1030 1078
246.1864 1109
246.2697 1083
246.3530 1004
246.4364 1009
246.5197 834
246.6031 737
246.6864 631
246.7697 467
246.8531 420
246.9364 336
247.0198 196
247.1031 187
247.1864 176
247.2698 194
247.3531 282
247.4365 360
247.5198 499
247.6031 760
247.6865 1043
247.7698 1222
247.8532 1541
247.9365 1982
248.0198 2138
248.1032 2456
248.1865 2624
248.2699 2986
248.3532 3193
248.4365 3389
248.5199 3265
248.6032 3314
248.6866 3200
248.7699 3191
248.8532 3138
248.9366 2950
249.0199 2687
249.1033 2423
249.1866 2171
249.2699 1809
249.3533 1513
249.4366 1246
249.5200 941
249.6033 698
249.6866 500
249.7700 336
249.8533 190
249.9367 86
250.0200 87
250.1033 76
250.1867 128
250.2700 213
250.3534 296
250.4367 387
250.5200 460
250.6034 709
250.6867 735
250.7701 845
250.8534 894
250.9367 967
251.0201 965
251.1034 1078
251.1868 978
251.2701 1012
251.3534 997
251.4368 852
251.5201 781
251.6035 696
251.6868 667
251.7701 582
251.8535 549
251.9368 448
252.0202 361
252.1035 256
252.1868 274
252.2702 209
252.3535 242
252.4369 227
252.5202 232
252.6035 268
252.6869 206
252.7702 215
252.8536 190
252.9369 207
253.0202 186
253.1036 184
253.1869 183
253.2703 260
253.3536 227
253.4369 282
253.5203 380
253.6036 364
253.6870 486
253.7703 601
253.8536 779
253.9370 963
254.0203 1054
254.1037 1124
254.1870 1364
254.2703 1514
254.3537 1597
254.4370 1728
254.5204 1722
254.6037 1802
254.6870 1839
254.7704 1746
254.8537 1612
254.9371 1564
255.0204 1380
255.1037 1146
255.1871 985
255.2704 770
255.3538 519
255.4371 405
255.5204 298
255.6038 202
255.6871 182
255.7705 234
255.8538 391
255.9371 611
256.0205 841
256.1038 1184
256.1872 1639
256.2705 2141
256.3538 2620
256.4372 3164
256.5205 3815
256.6039 4395
256.6872 4656
256.7705 5234
256.8539 5681
256.9372 6112
257.0206 6106
257.1039 6276
257.1872 6298
257.2706 6087
257.3539 6159
257.4373 5721
257.5206 5327
257.6039 4827
257.6873 4457
257.7706 3730
257.8540 3357
257.9373 2814
258.0206 2220
258.1040 1574
258.1873 1166
258.2707 837
258.3540 456
258.4373 256
258.5207 184
258.6040 142
258.6874 227
258.7707 373
258.8540 568
258.9374 808
259.0207 1094
259.1041 1383
259.1874 1709
259.2707 1953
259.3541 2287
259.4374 2458
259.5208 2855
259.6041 2817
259.6874 2904
259.7708 2954
259.8541 2739
259.9375 2695
260.0208 2684
260.1041 2480
260.1875 2270
260.2708 2097
260.3542 1911
260.4375 1552
260.5208 1347
260.6042 1329
260.6875 1171
260.7709 1064
260.8542 955
260.9375 894
261.0209 891
261.1042 820
261.1876 707
261.2709 736
261.3542 696
261.4376 634
261.5209 639
261.6043 637
261.6876 651
261.7709 597
261.8543 617
261.9376 539
262.0210 576
262.1043 604
262.1876 618
262.2710 563
262.3543 593
262.4377 748
262.5210 708
262.6043 801
262.6877 978
262.7710 1099
262.8544 1129
262.9377 1295
263.0210 1425
263.1044 1453
263.1877 1571
263.2711 1536
263.3544 1496
263.4377 1438
263.5211 1288
263.6044 1196
263.6878 1043
263.7711 902
263.8544 813
263.9378 692
264.0211 618
264.1045 626
264.1878 700
264.2711 787
264.3545 1096
264.4378 1382
264.5212 1953
264.6045 2403
264.6878 3184
264.7712 3801
264.8545 4432
264.9379 5325
265.0212 6431
265.1045 7144
265.1879 7747
265.2712 8223
265.3546 8848
265.4379 9010
265.5212 9117
265.6046 9369
265.6879 9440
265.7713 8951
265.8546 8761
265.9379 8321
266.0213 7629
266.1046 6606
266.1880 5968
266.2713 4972
266.3546 4151
266.4380 3344
266.5213 2444
266.6047 1679
266.6880 1214
266.7713 586
266.8547 353
266.9380 214
267.0214 171
267.1047 339
267.1880 594
267.2714 997
267.3547 1514
267.4381 2106
267.5214 2608
267.6047 3361
267.6881 3846
267.7714 4485
267.8548 4991
267.9381 5347
268.0214 5443
268.1048 5744
268.1881 6011
268.2715 5815
268.3548 5671
268.4381 5338
268.5215 5129
268.6048 4475
268.6882 4349
268.7715 3873
268.8548 3358
268.9382 2944
269.0215 2509
269.1049 2209
269.1882 1772
269.2715 1591
269.3549 1247
269.4382 984
269.5216 1023
269.6049 846
269.6882 786
269.7716 747
269.8549 733
269.9383 695
270.0216 713
270.1049 655
270.1883 641
270.2716 664
270.3550 561
270.4383 580
270.5216 611
270.6050 495
270.6883 489
270.7717 544
270.8550 553
270.9383 609
271.0217 725
271.1050 782
271.1884 865
271.2717 944
271.3550 1083
271.4384 1098
271.5217 1341
271.6051 1288
271.6884 1292
271.7717 1229
271.8551 1271
271.9384 1234
272.0218 1236
272.1051 1010
272.1884 926
272.2718 820
272.3551 735
272.4385 839
272.5218 827
272.6051 867
272.6885 1231
272.7718 1628
272.8552 1969
272.9385 2558
273.0218 3431
273.1052 4288
273.1885 5329
273.2719 6441
273.3552 7757
273.4385 8588
273.5219 9882
273.6052 10781
273.6886 11794
273.7719 12696
273.8552 13410
273.9386 13499
274.0219 13856
274.1053 14054
274.1886 13859
274.2719 13405
274.3553 12824
274.4386 11875
274.5220 10693
274.6053 9125
274.6886 7975
274.7720 6741
274.8553 5314
274.9387 4065
275.0220 2881
275.1053 1929
275.1887 1252
275.2720 638
275.3554 308
275.4387 199
275.5220 315
275.6054 676
275.6887 1155
275.7721 1919
275.8554 2784
275.9387 3852
276.0221 4787
276.1054 5628
276.1888 6838
276.2721 7656
276.3554 8566
276.4388 8721
276.5221 9231
276.6055 9487
276.6888 9458
276.7721 9231
276.8555 8755
276.9388 8321
277.0222 7847
277.1055 6897
277.1888 6426
277.2722 5757
277.3555 5144
277.4389 4357
277.5222 3500
277.6055 2784
277.6889 2408
277.7722 1919
277.8556 1498
277.9389 1255
278.0222 1054
278.1056 973
278.1889 863
278.2723 845
278.3556 723
278.4389 776
278.5223 708
278.6056 624
278.6890 682
278.7723 611
278.8556 664
278.9390 714
279.0223 737
279.1057 784
279.1890 964
279.2723 1173
279.3557 1608
279.4390 1765
279.5224 2303
279.6057 2600
279.6890 3022
279.7724 3664
279.8557 4054
279.9391 4217
280.0224 4556
280.1057 4728
280.1891 4565
280.2724 4469
280.3558 4188
280.4391 3786
280.5224 3180
280.6058 2902
280.6891 2165
280.7725 1700
280.8558 1228
280.9391 960
281.0225 1082
281.1058 1330
281.1892 1895
281.2725 2955
281.3558 4676
281.4392 6548
281.5225 9176
281.6059 12131
281.6892 15568
281.7725 18937
281.8559 22816
281.9392 27271
282.0226 30731
282.1059 34612
282.1892 37838
282.2726 41144
282.3559 43832
282.4393 45354
282.5226 46368
282.6059 45815
282.6893 45073
282.7726 42726
282.8560 40516
282.9393 36603
283.0226 32955
283.1060 29098
283.1893 24433
283.2727 20695
283.3560 16014
283.4393 12311
283.5227 8357
283.6060 5461
283.6894 3081
283.7727 1439
283.8560 647
283.9394 658
284.0227 1519
284.1061 3127
284.1894 5630
284.2727 8782
284.3561 12950
284.4394 17148
284.5228 21410
284.6061 25723
284.6894 29658
284.7728 33238
284.8561 37048
284.9395 39821
285.0228 41345
285.1061 42984
285.1895 43893
285.2728 41633
285.3562 40275
285.4395 39226
285.5228 36703
285.6062 33678
285.6895 31566
285.7729 27462
285.8562 25361
285.9395 20946
286.0229 17903
286.1062 16125
286.1896 13464
286.2729 12168
286.3562 10466
286.4396 9681
286.5229 8583
286.6063 8155
286.6896 7651
286.7729 7089
286.8563 7056
286.9396 7354
287.0230 6858
287.1063 6984
287.1896 6173
287.2730 5908
287.3563 5542
287.4397 4606
287.5230 4049
287.6063 3389
287.6897 2742
287.7730 2503
287.8564 2291
287.9397 2365
288.0230 2574
288.1064 3116
288.1897 4232
288.2731 5406
288.3564 6878
288.4397 8611
288.5231 10415
288.6064 11845
288.6898 13295
288.7731 15053
288.8564 15883
288.9398 17423
289.0231 17968
289.1065 19202
289.1898 19279
289.2731 18985
289.3565 20566
289.4398 22546
289.5232 23219
289.6065 28178
289.6898 31220
289.7732 38338
289.8565 46639
289.9399 55347
290.0232 68254
290.1065 81489
290.1899 99347
290.2732 114883
290.3566 134818
290.4399 152995
290.5232 170084
290.6066 189994
290.6899 204483
290.7733 217731
290.8566 236010
290.9399 241793
291.0233 246921
291.1066 247788
291.1900 243298
291.2733 235847
291.3566 223369
291.4400 205863
291.5233 181109
291.6067 156793
291.6900 134632
291.7733 108911
291.8567 87889
291.9400 66076
292.0234 50022
292.1067 36681
292.1900 28219
292.2734 26090
292.3567 29757
292.4401 41728
292.5234 63987
292.6067 94368
292.6901 139072
292.7734 191239
292.8568 246716
292.9401 316817
293.0234 387132
293.1068 462984
293.1901 523909
293.2735 614868
293.3568 658717
293.4401 729748
293.5235 760926
293.6068 789078
293.6902 809431
293.7735 812093
293.8568 804107
293.9402 797655
294.0235 766161
294.1069 745692
294.1902 696277
294.2735 640830
294.3569 557536
294.4402 457288
294.5236 373555
294.6069 282079
294.6902 203361
294.7736 139750
294.8569 87749
294.9403 50690
295.0236 27855
295.1069 19076
295.1903 25203
295.2736 45976
295.3570 85202
295.4403 146796
295.5236 226388
295.6070 326349
295.6903 435679
295.7737 550864
295.8570 658541
295.9403 727922
296.0237 821733
296.1070 858715
296.1904 871425
296.2737 874035
296.3570 871512
296.4404 858901
296.5237 856872
296.6071 854237
296.6904 861270
296.7737 864835
296.8571 865834
296.9404 850667
297.0238 822831
297.1071 758785
297.1904 666341
297.2738 552965
297.3571 431924
297.4405 315350
297.5238 213809
297.6071 144734
297.6905 84197
297.7738 43015
297.8572 18217
297.9405 8629
298.0238 12557
298.1072 30846
298.1905 62763
298.2739 111047
298.3572 168986
298.4405 246774
298.5239 326605
298.6072 425085
298.6906 498608
298.7739 604986
298.8572 671164
298.9406 717683
299.0239 765517
299.1073 791068
299.1906 799001
299.2739 798307
299.3573 788801
299.4406 758465
299.5240 724154
299.6073 670605
299.6906 664379
299.7740 593075
299.8573 517680
299.9407 451477
300.0240 368168
300.1073 288698
300.1907 223081
300.2740 166214
300.3574 116648
300.4407 73109
300.5240 44296
300.6074 24366
300.6907 10992
300.7741 5391
300.8574 5930
300.9407 11926
301.0241 23410
301.1074 38781
301.1908 58711
301.2741 79799
301.3574 102214
301.4408 128291
301.5241 150219
301.6075 167400
301.6908 185427
301.7741 194069
301.8575 199884
301.9408 210069
302.0242 194322
302.1075 195380
302.1908 198556
302.2742 182538
302.3575 164124
302.4409 152064
302.5242 131122
302.6075 115894
302.6909 98066
302.7742 79797
302.8576 64463
302.9409 52695
303.0242 38704
303.1076 30319
303.1909 23162
303.2743 15302
303.3576 11054
303.4409 7692
303.5243 5862
303.6076 4570
303.6910 4078
303.7743 4037
303.8576 4297
303.9410 4699
304.0243 5045
304.1077 5040
304.1910 4971
304.2743 5124
304.3577 4615
304.4410 4573
304.5244 3933
304.6077 3184
304.6910 2577
304.7744 1921
304.8577 1244
304.9411 805
305.0244 505
305.1077 395
305.1911 334
305.2744 520
305.3578 717
305.4411 944
305.5244 1481
305.6078 1694
305.6911 2108
305.7745 2282
305.8578 2321
305.9411 2504
306.0245 2423
306.1078 2286
306.1912 2149
306.2745 2082
306.3578 1959
306.4412 2220
306.5245 2443
306.6079 3486
306.6912 4264
306.7745 5455
306.8579 7608
306.9412 9532
307.0246 12338
307.1079 14754
307.1912 18129
307.2746 21207
307.3579 25070
307.4413 27997
307.5246 31564
307.6079 33476
307.6913 36549
307.7746 37960
307.8580 38299
307.9413 37731
308.0246 37045
308.1080 36026
308.1913 34617
308.2747 32670
308.3580 29061
308.4413 24814
308.5247 21200
308.6080 17493
308.6914 14260
308.7747 10388
308.8580 7292
308.9414 4482
309.0247 2642
309.1081 1245
309.1914 512
309.2747 468
309.3581 1112
309.4414 2496
309.5248 4363
309.6081 7010
309.6914 9725
309.7748 12968
309.8581 16230
309.9415 18929
310.0248 22398
310.1081 25962
310.1915 28528
310.2748 30475
310.3582 32153
310.4415 32196
310.5248 32828
310.6082 31661
310.6915 31176
310.7749 30215
310.8582 26937
310.9415 24217
311.0249 22301
311.1082 18949
311.1916 16233
311.2749 13572
311.3582 11366
311.4416 9193
311.5249 7008
311.6083 5312
311.6916 3903
311.7749 2623
311.8583 1931
311.9416 1298
312.0250 957
312.1083 818
312.1916 843
312.2750 1002
312.3583 1217
312.4417 1411
312.5250 1595
312.6083 1851
312.6917 1813
312.7750 2019
312.8584 1932
312.9417 2085
313.0250 1936
313.1084 1513
313.1917 1319
313.2751 1126
313.3584 985
313.4417 814
313.5251 612
313.6084 398
313.6918 415
313.7751 369
313.8584 423
313.9418 435
314.0251 566
314.1085 530
314.1918 658
314.2751 718
314.3585 753
314.4418 827
314.5252 853
314.6085 893
314.6918 887
314.7752 855
314.8585 932
314.9419 989
315.0252 1164
315.1085 1305
315.1919 1571
315.2752 1966
315.3586 2600
315.4419 2960
315.5252 3863
315.6086 4265
315.6919 5240
315.7753 6242
315.8586 6794
315.9419 7842
316.0253 8640
316.1086 9163
316.1920 9578
316.2753 9845
316.3586 9951
316.4420 10331
316.5253 9988
316.6087 9743
316.6920 9235
316.7753 8458
316.8587 7405
316.9420 6421
317.0254 5493
317.1087 4385
317.1920 3360
317.2754 2304
317.3587 1436
317.4421 987
317.5254 556
317.6087 252
317.6921 240
317.7754 467
317.8588 842
317.9421 1680
318.0254 2525
318.1088 3562
318.1921 4589
318.2755 5874
318.3588 7099
318.4421 8131
318.5255 9319
318.6088 10503
318.6922 11702
318.7755 12022
318.8588 12571
318.9422 12370
319.0255 12182
319.1089 12109
319.1922 11588
319.2755 11140
319.3589 10015
319.4422 9029
319.5256 7797
319.6089 7046
319.6922 6132
319.7756 4830
319.8589 4174
319.9423 3033
320.0256 2398
320.1089 1719
320.1923 1276
320.2756 980
320.3590 690
320.4423 574
320.5256 542
320.6090 682
320.6923 734
320.7757 944
320.8590 1051
320.9423 1303
321.0257 1261
321.1090 1497
321.1924 1471
321.2757 1428
321.3590 1427
321.4424 1459
321.5257 1304
321.6091 1186
321.6924 966
321.7757 795
321.8591 660
321.9424 528
322.0258 445
322.1091 337
322.1924 345
322.2758 272
322.3591 351
322.4425 377
322.5258 443
322.6091 556
322.6925 622
322.7758 686
322.8592 807
322.9425 866
323.0258 876
323.1092 907
323.1925 1011
323.2759 942
323.3592 981
323.4425 1028
323.5259 1013
323.6092 1115
323.6926 1085
323.7759 1246
323.8592 1300
323.9426 1625
324.0259 1735
324.1093 2000
324.1926 2324
324.2759 2806
324.3593 2898
324.4426 3373
324.5260 3668
324.6093 4124
324.6926 4057
324.7760 4692
324.8593 4269
324.9427 4558
325.0260 4374
325.1093 4217
325.1927 4134
325.2760 3990
325.3594 3317
325.4427 2947
325.5260 2532
325.6094 1982
325.6927 1702
325.7761 1190
325.8594 834
325.9427 585
326.0261 409
326.1094 329
326.1928 433
326.2761 549
326.3594 817
326.4428 1156
326.5261 1662
326.6095 2330
326.6928 2894
326.7761 3660
326.8595 4320
326.9428 4726
327.0262 5563
327.1095 5962
327.1928 6336
327.2762 6754
327.3595 6890
327.4429 6857
327.5262 6916
327.6095 6700
327.6929 6299
327.7762 5795
327.8596 5533
327.9429 4965
328.0262 4132
328.1096 3798
328.1929 3037
328.2763 2448
328.3596 1990
328.4429 1469
328.5263 1008
328.6096 690
328.6930 357
328.7763 224
328.8596 113
328.9430 121
329.0263 133
329.1097 220
329.1930 335
329.2763 501
329.3597 642
329.4430 788
329.5264 944
329.6097 1065
329.6930 1121
329.7764 1040
329.8597 1141
329.9431 1153
330.0264 1078
330.1097 1083
330.1931 1036
330.2764 819
330.3598 664
330.4431 578
330.5264 413
330.6098 349
330.6931 287
330.7765 237
330.8598 139
330.9431 154
331.0265 105
331.1098 102
331.1932 96
331.2765 117
331.3598 137
331.4432 170
331.5265 201
331.6099 216
331.6932 201
331.7765 231
331.8599 249
331.9432 246
332.0266 296
332.1099 289
332.1932 367
332.2766 441
332.3599 544
332.4433 617
332.5266 731
332.6099 824
332.6933 1089
332.7766 1279
332.8600 1464
332.9433 1652
333.0266 1832
333.1100 2030
333.1933 2033
333.2767 2210
333.3600 2197
333.4433 2251
333.5267 2246
333.6100 2189
333.6934 1978
333.7767 1906
333.8600 1644
333.9434 1464
334.0267 1296
334.1101 932
334.1934 777
334.2767 492
334.3601 402
334.4434 217
334.5268 146
334.6101 114
334.6934 165
334.7768 326
334.8601 503
334.9435 791
335.0268 1041
335.1101 1427
335.1935 1815
335.2768 2409
335.3602 2692
335.4435 3326
335.5268 3446
335.6102 3794
335.6935 4140
335.7769 4416
335.8602 4525
335.9435 4768
336.0269 4521
336.1102 4448
336.1936 4464
336.2769 4223
336.3602 3756
336.4436 3485
336.5269 3001
336.6103 2595
336.6936 2287
336.7769 1758
336.8603 1401
336.9436 1016
337.0270 777
337.1103 512
337.1936 333
337.2770 211
337.3603 122
337.4437 74
337.5270 97
337.6103 169
337.6937 267
337.7770 381
337.8604 531
337.9437 641
338.0270 762
338.1104 953
338.1937 966
338.2771 1128
338.3604 1114
338.4437 1015
338.5271 1097
338.6104 1128
338.6938 1056
338.7771 1036
338.8604 931
338.9438 781
339.0271 712
339.1105 602
339.1938 503
339.2771 363
339.3605 373
339.4438 312
339.5272 267
339.6105 211
339.6938 209
339.7772 226
339.8605 155
339.9439 218
340.0272 207
340.1105 194
340.1939 203
340.2772 223
340.3606 239
340.4439 213
340.5272 175
340.6106 237
340.6939 246
340.7773 244
340.8606 225
340.9439 297
341.0273 334
341.1106 375
341.1940 424
341.2773 488
341.3606 479
341.4440 603
341.5273 666
341.6107 857
341.6940 717
341.7773 820
341.8607 872
341.9440 889
342.0274 991
342.1107 937
342.1940 860
342.2774 743
342.3607 646
342.4441 613
342.5274 545
342.6107 464
342.6941 346
342.7774 291
342.8608 178
342.9441 153
343.0274 164
343.1108 191
343.1941 232
343.2775 367
343.3608 518
343.4441 648
343.5275 834
343.6108 1082
343.6942 1289
343.7775 1593
343.8608 1799
343.9442 2110
344.0275 2195
344.1109 2232
344.1942 2438
344.2775 2541
344.3609 2643
344.4442 2784
344.5276 2623
344.6109 2484
344.6942 2466
344.7776 2179
344.8609 1895
344.9443 1717
345.0276 1422
345.1109 1174
345.1943 1054
345.2776 750
345.3610 574
345.4443 407
345.5276 283
345.6110 192
345.6943 84
345.7777 81
345.8610 71
345.9443 108
346.0277 208
346.1110 250
346.1944 355
346.2777 457
346.3610 540
346.4444 763
346.5277 773
346.6111 858
346.6944 901
346.7777 1005
346.8611 929
346.9444 1005
347.0278 888
347.1111 941
347.1944 920
347.2778 826
347.3611 762
347.4445 646
347.5278 551
347.6111 498
347.6945 446
347.7778 272
347.8612 288
347.9445 245
348.0278 164
348.1112 118
348.1945 85
348.2779 96
348.3612 87
348.4445 85
348.5279 74
348.6112 91
348.6946 78
348.7779 81
348.8612 96
348.9446 112
349.0279 91
349.1113 115
349.1946 123
349.2779 111
349.3613 129
349.4446 166
349.5280 178
349.6113 187
349.6946 229
349.7780 239
349.8613 306
349.9447 327
350.0280 392
350.1113 403
350.1947 437
350.2780 456
350.3614 465
350.4447 513
350.5280 486
350.6114 462
350.6947 478
350.7781 372
350.8614 381
350.9447 334
351.0281 323
351.1114 249
351.1948 196
351.2781 125
351.3614 95
351.4448 105
351.5281 98
351.6115 128
351.6948 191
351.7781 206
351.8615 337
351.9448 430
352.0282 587
352.1115 744
352.1948 1000
352.2782 1188
352.3615 1312
352.4449 1519
352.5282 1555
352.6115 1818
352.6949 1884
352.7782 1900
352.8616 2129
352.9449 2063
353.0282 2040
353.1116 2009
353.1949 1825
353.2783 1776
353.3616 1690
353.4449 1449
353.5283 1232
353.6116 1035
353.6950 845
353.7783 687
353.8616 497
353.9450 356
354.0283 236
354.1117 158
354.1950 49
354.2783 43
354.3617 41
354.4450 51
354.5284 102
354.6117 234
354.6950 300
354.7784 441
354.8617 488
354.9451 607
355.0284 668
355.1117 748
355.1951 835
355.2784 931
355.3618 939
355.4451 1007
355.5284 895
355.6118 976
355.6951 870
355.7785 877
355.8618 765
355.9451 705
356.0285 598
356.1118 498
356.1952 488
356.2785 467
356.3618 349
356.4452 228
356.5285 206
356.6119 187
356.6952 109
356.7785 91
356.8619 75
356.9452 46
357.0286 43
357.1119 64
357.1952 82
357.2786 100
357.3619 80
357.4453 78
357.5286 100
357.6119 74
357.6953 95
357.7786 113
357.8620 103
357.9453 117
358.0286 122
358.1120 104
358.1953 96
358.2787 122
358.3620 144
358.4453 142
358.5287 165
358.6120 162
358.6954 213
358.7787 153
358.8620 198
358.9454 201
359.0287 193
359.1121 185
359.1954 172
359.2787 202
359.3621 171
359.4454 161
359.5288 120
359.6121 146
359.6954 148
359.7788 93
359.8621 94
359.9455 101
360.0288 82
360.1121 108
360.1955 141
360.2788 178
360.3622 285
360.4455 271
360.5288 319
360.6122 391
360.6955 578
360.7789 588
360.8622 693
360.9455 721
361.0289 859
361.1122 900
361.1956 1020
361.2789 1054
361.3622 1033
361.4456 1015
361.5289 1055
361.6123 1130
361.6956 965
361.7789 956
361.8623 874
361.9456 773
362.0290 607
362.1123 499
362.1956 465
362.2790 394
362.3623 245
362.4457 203
362.5290 185
362.6123 98
362.6957 48
362.7790 77
362.8624 53
362.9457 57
363.0290 81
363.1124 187
363.1957 209
363.2791 329
363.3624 353
363.4457 400
363.5291 475
363.6124 529
363.6958 589
363.7791 605
363.8624 629
363.9458 642
364.0291 619
364.1125 626
364.1958 559
364.2791 515
364.3625 550
364.4458 544
364.5292 431
364.6125 358
364.6958 372
364.7792 331
364.8625 188
364.9459 176
365.0292 129
365.1125 123
365.1959 82
365.2792 82
365.3626 53
365.4459 41
365.5292 53
365.6126 40
365.6959 42
365.7793 32
365.8626 34
365.9459 41
366.0293 36
366.1126 36
366.1960 44
366.2793 47
366.3626 28
366.4460 55
366.5293 31
366.6127 53
366.6960 72
366.7793 77
366.8627 73
366.9460 93
367.0294 101
367.1127 118
367.1960 132
367.2794 126
367.3627 154
367.4461 145
367.5294 162
367.6127 147
367.6961 161
367.7794 114
367.8628 131
367.9461 107
368.0294 93
368.1128 86
368.1961 72
368.2795 78
368.3628 64
368.4461 70
368.5295 96
368.6128 123
368.6962 113
368.7795 164
368.8628 170
368.9462 210
369.0295 276
369.1129 357
369.1962 412
369.2795 480
369.3629 614
369.4462 559
369.5296 632
369.6129 760
369.6962 739
369.7796 781
369.8629 804
369.9463 912
370.0296 731
370.1129 762
370.1963 710
370.2796 656
370.3630 601
370.4463 536
370.5296 370
370.6130 398
370.6963 312
370.7797 234
370.8630 188
370.9463 127
371.0297 133
371.1130 80
371.1964 78
371.2797 68
371.3630 78
371.4464 132
371.5297 152
371.6131 187
371.6964 209
371.7797 298
371.8631 358
371.9464 390
372.0298 394
372.1131 525
372.1964 566
372.2798 490
372.3631 557
372.4465 544
372.5298 583
372.6131 530
372.6965 480
372.7798 434
372.8632 483
372.9465 415
373.0298 332
373.1132 330
373.1965 287
373.2799 214
373.3632 156
373.4465 135
373.5299 126
373.6132 90
373.6966 73
373.7799 57
373.8632 47
373.9466 49
374.0299 32
374.1133 32
374.1966 23
374.2799 45
374.3633 13
374.4466 18
374.5300 16
374.6133 28
374.6966 18
374.7800 26
374.8633 21
374.9467 35
375.0300 16
375.1133 39
375.1967 19
375.2800 53
375.3634 29
375.4467 58
375.5300 69
375.6134 76
375.6967 58
375.7801 71
375.8634 85
375.9467 91
376.0301 61
376.1134 86
376.1968 66
376.2801 75
376.3634 85
376.4468 40
376.5301 35
376.6135 62
376.6968 29
376.7801 15
376.8635 64
376.9468 34
377.0302 62
377.1135 66
377.1968 121
377.2802 121
377.3635 160
377.4469 209
377.5302 255
377.6135 345
377.6969 338
377.7802 441
377.8636 476
377.9469 583
378.0302 584
378.1136 617
378.1969 623
378.2803 696
378.3636 653
378.4469 717
378.5303 665
378.6136 636
378.6970 710
378.7803 575
378.8636 535
378.9470 476
379.0303 447
379.1137 406
379.1970 324
379.2803 199
379.3637 211
379.4470 122
379.5304 107
379.6137 76
379.6970 46
379.7804 63
379.8637 76
379.9471 96
380.0304 77
380.1137 173
380.1971 204
380.2804 306
380.3638 328
380.4471 418
380.5304 396
380.6138 484
380.6971 515
380.7805 501
380.8638 624
380.9471 544
381.0305 611
381.1138 499
381.1972 560
381.2805 532
381.3638 487
381.4472 485
381.5305 383
381.6139 391
381.6972 345
381.7805 266
381.8639 149
381.9472 143
382.0306 135
382.1139 132
382.1972 63
382.2806 49
382.3639 24
382.4473 44
382.5306 50
382.6139 38
382.6973 36
382.7806 66
382.8640 64
382.9473 70
383.0306 60
383.1140 80
383.1973 103
383.2807 93
383.3640 84
383.4473 87
383.5307 105
383.6140 66
383.6974 62
383.7807 63
383.8640 59
383.9474 48
384.0307 57
384.1141 32
384.1974 19
384.2807 63
384.3641 19
384.4474 51
384.5308 20
384.6141 43
384.6974 50
384.7808 49
384.8641 34
384.9475 77
385.0308 95
385.1141 88
385.1975 110
385.2808 127
385.3642 95
385.4475 127
385.5308 131
385.6142 144
385.6975 121
385.7809 117
385.8642 150
385.9475 135
386.0309 169
386.1142 199
386.1976 219
386.2809 264
386.3642 272
386.4476 282
386.5309 321
386.6143 350
386.6976 402
386.7809 372
386.8643 401
386.9476 462
387.0310 399
387.1143 427
387.1976 412
387.2810 400
387.3643 367
387.4477 422
387.5310 284
387.6143 316
387.6977 244
387.7810 215
387.8644 206
387.9477 162
388.0310 127
388.1144 139
388.1977 124
388.2811 77
388.3644 99
388.4477 132
388.5311 135
388.6144 139
388.6978 113
388.7811 159
388.8644 158
388.9478 216
389.0311 310
389.1145 252
389.1978 301
389.2811 324
389.3645 330
389.4478 369
389.5312 366
389.6145 388
389.6978 364
389.7812 395
389.8645 340
389.9479 334
390.0312 295
390.1145 309
390.1979 211
390.2812 227
390.3646 182
390.4479 207
390.5312 164
390.6146 128
390.6979 110
390.7813 77
390.8646 32
390.9479 53
391.0313 40
391.1146 26
391.1980 35
391.2813 29
391.3646 39
391.4480 40
391.5313 51
391.6147 51
391.6980 59
391.7813 72
391.8647 69
391.9480 95
392.0314 58
392.1147 75
392.1980 74
392.2814 83
392.3647 69
392.4481 62
392.5314 51
392.6147 52
392.6981 46
392.7814 50
392.8648 17
392.9481 18
393.0314 19
393.1148 21
393.1981 14
393.2815 36
393.3648 34
393.4481 39
393.5315 37
393.6148 30
393.6982 52
393.7815 45
393.8648 67
393.9482 73
394.0315 81
394.1149 96
394.1982 104
394.2815 115
394.3649 142
394.4482 174
394.5316 201
394.6149 223
394.6982 251
394.7816 223
394.8649 242
394.9483 284
395.0316 273
395.1149 365
395.1983 339
395.2816 360
395.3650 350
395.4483 415
395.5316 328
395.6150 368
395.6983 337
395.7817 358
395.8650 349
395.9483 319
396.0317 306
396.1150 247
396.1984 297
396.2817 223
396.3650 203
396.4484 191
396.5317 166
396.6151 142
396.6984 126
396.7817 101
396.8651 154
396.9484 115
397.0318 131
397.1151 151
397.1984 200
397.2818 197
397.3651 250
397.4485 268
397.5318 294
397.6151 374
397.6985 354
397.7818 387
397.8652 400
397.9485 436
398.0318 403
398.1152 489
398.1985 463
398.2819 464
398.3652 439
398.4485 378
398.5319 380
398.6152 352
398.6986 305
398.7819 269
398.8652 274
398.9486 210
399.0319 190
399.1153 145
399.1986 102
399.2819 75
399.3653 69
399.4486 61
399.5320 21
399.6153 15
399.6986 16
399.7820 13
399.8653 25
399.9487 18
400.0320 33
400.1153 53
400.1987 45
400.2820 80
400.3654 72
400.4487 91
400.5320 90
400.6154 106
400.6987 89
400.7821 65
400.8654 71
400.9487 83
401.0321 58
401.1154 54
401.1988 67
401.2821 64
401.3654 51
401.4488 53
401.5321 49
401.6155 66
401.6988 42
401.7821 62
401.8655 47
401.9488 53
402.0322 91
402.1155 47
402.1988 48
402.2822 72
402.3655 72
402.4489 106
402.5322 66
402.6155 56
402.6989 67
402.7822 66
402.8656 100
402.9489 115
403.0322 110
403.1156 112
403.1989 150
403.2823 104
403.3656 139
403.4489 164
403.5323 130
403.6156 210
403.6990 192
403.7823 174
403.8656 169
403.9490 174
404.0323 166
404.1157 177
404.1990 147
404.2823 181
404.3657 125
404.4490 151
404.5324 143
404.6157 146
404.6990 83
404.7824 83
404.8657 99
404.9491 96
405.0324 49
405.1157 57
405.1991 51
405.2824 69
405.3658 67
405.4491 96
405.5324 99
405.6158 119
405.6991 139
405.7825 202
405.8658 148
405.9491 245
406.0325 223
406.1158 250
406.1992 250
406.2825 290
406.3658 335
406.4492 328
406.5325 319
406.6159 377
406.6992 381
406.7825 335
406.8659 377
406.9492 288
407.0326 343
407.1159 293
407.1992 272
407.2826 240
407.3659 194
407.4493 231
407.5326 152
407.6159 159
407.6993 109
407.7826 88
407.8660 75
407.9493 98
408.0326 59
408.1160 40
408.1993 25
408.2827 47
408.3660 54
408.4493 51
408.5327 63
408.6160 81
408.6994 59
408.7827 99
408.8660 84
408.9494 96
409.0327 87
409.1161 80
409.1994 100
409.2827 126
409.3661 138
409.4494 97
409.5328 80
409.6161 73
409.6994 82
409.7828 87
409.8661 59
409.9495 60
410.0328 64
410.1161 38
410.1995 36
410.2828 50
410.3662 20
410.4495 35
410.5328 37
410.6162 34
410.6995 19
410.7829 14
410.8662 28
410.9495 12
411.0329 22
411.1162 7
411.1996 52
411.2829 29
411.3662 29
411.4496 48
411.5329 36
411.6163 41
411.6996 31
411.7829 33
411.8663 45
411.9496 56
412.0330 70
412.1163 69
412.1996 62
412.2830 81
412.3663 79
412.4497 93
412.5330 101
412.6163 91
412.6997 84
412.7830 80
412.8664 72
412.9497 113
413.0330 82
413.1164 66
413.1997 103
413.2831 71
413.3664 69
413.4497 60
413.5331 57
413.6164 59
413.6998 64
413.7831 53
413.8664 57
413.9498 71
414.0331 88
414.1165 90
414.1998 104
414.2831 130
414.3665 146
414.4498 133
414.5332 151
414.6165 204
414.6998 186
414.7832 163
414.8665 166
414.9499 207
415.0332 183
415.1165 148
415.1999 206
415.2832 177
415.3666 154
415.4499 129
415.5332 110
415.6166 106
415.6999 87
415.7833 90
415.8666 58
415.9499 50
416.0333 62
416.1166 62
416.2000 52
416.2833 44
416.3666 51
416.4500 28
416.5333 43
416.6167 36
416.7000 48
416.7833 52
416.8667 56
416.9500 94
417.0334 79
417.1167 95
417.2000 74
417.2834 108
417.3667 84
417.4501 77
417.5334 91
417.6167 92
417.7001 95
417.7834 109
417.8668 58
417.9501 66
418.0334 54
418.1168 46
418.2001 28
418.2835 60
418.3668 32
418.4501 31
418.5335 32
418.6168 17
418.7002 13
418.7835 17
418.8668 28
418.9502 30
419.0335 65
419.1169 26
419.2002 49
419.2835 32
419.3669 40
419.4502 42
419.5336 44
419.6169 34
419.7002 55
419.7836 30
419.8669 31
419.9503 37
420.0336 27
420.1169 45
420.2003 40
420.2836 40
420.3670 63
420.4503 50
420.5336 68
420.6170 62
420.7003 90
420.7837 77
420.8670 77
420.9503 120
421.0337 126
421.1170 139
421.2004 118
421.2837 132
421.3670 100
421.4504 93
421.5337 100
421.6171 101
421.7004 95
421.7837 82
421.8671 50
421.9504 82
422.0338 64
422.1171 50
422.2004 38
422.2838 34
422.3671 27
422.4505 14
422.5338 13
422.6171 32
422.7005 42
422.7838 54
422.8672 48
422.9505 58
423.0338 87
423.1172 80
423.2005 120
423.2839 101
423.3672 110
423.4505 128
423.5339 169
423.6172 132
423.7006 175
423.7839 215
423.8672 201
423.9506 185
424.0339 244
424.1173 186
424.2006 205
424.2839 193
424.3673 162
424.4506 179
424.5340 158
424.6173 153
424.7006 81
424.7840 114
424.8673 98
424.9507 56
425.0340 70
425.1173 57
425.2007 66
425.2840 37
425.3674 37
425.4507 51
425.5340 55
425.6174 62
425.7007 65
425.7841 74
425.8674 42
425.9507 87
426.0341 48
426.1174 66
426.2008 72
426.2841 61
426.3674 88
426.4508 83
426.5341 53
426.6175 62
426.7008 57
426.7841 47
426.8675 43
426.9508 45
427.0342 34
427.1175 52
427.2008 35
427.2842 29
427.3675 31
427.4509 20
427.5342 20
427.6175 43
427.7009 9
427.7842 16
427.8676 21
427.9509 13
428.0342 38
428.1176 33
428.2009 44
428.2843 52
428.3676 26
428.4509 26
428.5343 31
428.6176 35
428.7010 19
428.7843 38
428.8676 56
428.9510 26
429.0343 20
429.1177 35
429.2010 51
429.2843 41
429.3677 71
429.4510 51
429.5344 82
429.6177 78
429.7010 60
429.7844 70
429.8677 93
429.9511 86
430.0344 86
430.1177 73
430.2011 80
430.2844 77
430.3678 97
430.4511 62
430.5344 77
430.6178 43
430.7011 46
430.7845 37
430.8678 16
430.9511 31
431.0345 43
431.1178 11
431.2012 18
431.2845 14
431.3678 33
431.4512 9
431.5345 59
431.6179 78
431.7012 68
431.7845 78
431.8679 53
431.9512 110
432.0346 106
432.1179 114
432.2012 132
432.2846 145
432.3679 107
432.4513 146
432.5346 151
432.6179 121
432.7013 145
432.7846 138
432.8680 157
432.9513 126
433.0346 102
433.1180 106
433.2013 92
433.2847 101
433.3680 70
433.4513 97
433.5347 57
433.6180 61
433.7014 45
433.7847 49
433.8680 51
433.9514 56
434.0347 15
434.1181 33
434.2014 23
434.2847 24
434.3681 38
434.4514 17
434.5348 32
434.6181 60
434.7014 56
434.7848 54
434.8681 75
434.9515 62
435.0348 79
435.1181 82
435.2015 79
435.2848 83
435.3682 90
435.4515 95
435.5348 104
435.6182 91
435.7015 57
435.7849 65
435.8682 65
435.9515 65
436.0349 43
436.1182 40
436.2016 46
436.2849 27
436.3682 31
436.4516 41
436.5349 43
436.6183 37
436.7016 28
436.7849 27
436.8683 39
436.9516 88
437.0350 34
437.1183 41
437.2016 32
437.2850 31
437.3683 51
437.4517 42
437.5350 47
437.6183 48
437.7017 27
437.7850 45
437.8684 51
437.9517 18
438.0350 42
438.1184 42
438.2017 38
438.2851 36
438.3684 36
438.4517 33
438.5351 54
438.6184 49
438.7018 36
438.7851 81
438.8684 54
438.9518 38
439.0351 56
439.1185 58
439.2018 44
439.2851 27
439.3685 37
439.4518 32
439.5352 21
439.6185 37
439.7018 13
439.7852 21
439.8685 11
439.9519 21
440.0352 21
440.1185 31
440.2019 43
440.2852 58
440.3686 37
440.4519 65
440.5352 67
440.6186 79
440.7019 107
440.7853 129
440.8686 112
440.9519 97
441.0353 118
441.1186 154
441.2020 125
441.2853 139
441.3686 101
441.4520 120
441.5353 115
441.6187 99
441.7020 80
441.7853 70
441.8687 77
441.9520 100
442.0354 62
442.1187 55
442.2020 26
442.2854 20
442.3687 40
442.4521 13
442.5354 26
442.6187 15
442.7021 6
442.7854 13
442.8688 17
442.9521 13
443.0354 26
443.1188 41
443.2021 66
443.2855 21
443.3688 47
443.4521 38
443.5355 61
443.6188 41
443.7022 71
443.7855 26
443.8688 64
443.9522 42
444.0355 57
444.1189 49
444.2022 45
444.2855 79
444.3689 31
444.4522 48
444.5356 35
444.6189 32
444.7022 41
444.7856 42
444.8689 32
444.9523 39
445.0356 19
445.1189 31
445.2023 29
445.2856 27
445.3690 21
445.4523 41
445.5356 13
445.6190 35
445.7023 17
445.7857 40
445.8690 31
445.9523 51
446.0357 35
446.1190 27
446.2024 18
446.2857 38
446.3690 16
446.4524 39
446.5357 33
446.6191 39
446.7024 34
446.7857 32
446.8691 44
446.9524 72
447.0358 39
447.1191 19
447.2024 39
447.2858 54
447.3691 53
447.4525 41
447.5358 26
447.6191 77
447.7025 24
447.7858 34
447.8692 51
447.9525 19
448.0358 12
448.1192 41
448.2025 31
448.2859 13
448.3692 19
448.4525 16
448.5359 18
448.6192 37
448.7026 25
448.7859 41
448.8692 28
448.9526 44
449.0359 39
449.1193 52
449.2026 73
449.2859 69
449.3693 78
449.4526 86
449.5360 63
449.6193 124
449.7026 95
449.7860 111
449.8693 112
449.9527 109
450.0360 121
450.1193 109
450.2027 145
450.2860 123
450.3694 104
450.4527 78
450.5360 59
450.6194 57
450.7027 47
450.7861 45
450.8694 37
450.9527 16
451.0361 29
451.1194 32
451.2028 23
451.2861 27
451.3694 10
451.4528 28
451.5361 54
451.6195 9
451.7028 9
451.7861 23
451.8695 35
451.9528 33
452.0362 47
452.1195 55
452.2028 26
452.2862 49
452.3695 54
452.4529 41
452.5362 35
452.6195 61
452.7029 32
452.7862 44
452.8696 52
452.9529 47
453.0362 30
453.1196 26
453.2029 34
453.2863 24
453.3696 58
453.4529 24
453.5363 52
453.6196 30
453.7030 42
453.7863 13
453.8696 47
453.9530 23
454.0363 18
454.1197 26
454.2030 36
454.2863 30
454.3697 33
454.4530 16
454.5364 45
454.6197 38
454.7030 47
454.7864 34
454.8697 33
454.9531 26
455.0364 31
455.1197 33
455.2031 72
455.2864 45
455.3698 47
455.4531 31
455.5364 40
455.6198 30
455.7031 34
455.7865 21
455.8698 21
455.9531 28
456.0365 27
456.1198 33
456.2032 9
456.2865 15
456.3698 35
456.4532 15
456.5365 4
456.6199 8
456.7032 14
456.7865 22
456.8699 13
456.9532 15
457.0366 23
457.1199 13
457.2032 26
457.2866 39
457.3699 43
457.4533 62
457.5366 45
457.6199 91
457.7033 73
457.7866 101
457.8700 79
457.9533 86
458.0366 84
458.1200 96
458.2033 113
458.2867 94
458.3700 110
458.4533 101
458.5367 100
458.6200 79
458.7034 91
458.7867 112
458.8700 65
458.9534 86
459.0367 68
459.1201 31
459.2034 26
459.2867 60
459.3701 42
459.4534 28
459.5368 22
459.6201 20
459.7034 38
459.7868 18
459.8701 4
459.9535 28
460.0368 32
460.1201 15
460.2035 37
460.2868 24
460.3702 26
460.4535 53
460.5368 61
460.6202 48
460.7035 46
460.7869 112
460.8702 80
460.9535 41
461.0369 60
461.1202 45
461.2036 39
461.2869 55
461.3702 52
461.4536 25
461.5369 46
461.6203 47
461.7036 36
461.7869 57
461.8703 27
461.9536 30
462.0370 18
462.1203 29
462.2036 33
462.2870 12
462.3703 10
462.4537 19
462.5370 34
462.6203 20
462.7037 25
462.7870 13
462.8704 17
462.9537 23
463.0370 18
463.1204 30
463.2037 18
463.2871 28
463.3704 14
463.4537 19
463.5371 23
463.6204 20
463.7038 40
463.7871 43
463.8704 34
463.9538 40
464.0371 17
464.1205 18
464.2038 38
464.2871 22
464.3705 38
464.4538 42
464.5372 36
464.6205 34
464.7038 24
464.7872 22
464.8705 10
464.9539 51
465.0372 7
465.1205 28
465.2039 42
465.2872 20
465.3706 12
465.4539 25
465.5372 52
465.6206 31
465.7039 26
465.7873 13
465.8706 8
465.9539 32
466.0373 45
466.1206 61
466.2040 68
466.2873 52
466.3706 67
466.4540 63
466.5373 78
466.6207 70
466.7040 75
466.7873 82
466.8707 92
466.9540 62
467.0374 93
467.1207 63
467.2040 91
467.2874 84
467.3707 85
467.4541 76
467.5374 49
467.6207 63
467.7041 81
467.7874 26
467.8708 50
467.9541 58
468.0374 16
468.1208 24
468.2041 36
468.2875 14
468.3708 22
468.4541 25
468.5375 20
468.6208 14
468.7042 19
468.7875 38
468.8708 29
468.9542 18
469.0375 34
469.1209 31
469.2042 48
469.2875 70
469.3709 70
469.4542 69
469.5376 42
469.6209 87
469.7042 69
469.7876 45
469.8709 64
469.9543 69
470.0376 75
470.1209 44
470.2043 46
470.2876 47
470.3710 51
470.4543 25
470.5376 39
470.6210 39
470.7043 27
470.7877 24
470.8710 45
470.9543 11
471.0377 5
471.1210 29
471.2044 56
471.2877 21
471.3710 17
471.4544 11
471.5377 23
471.6211 16
471.7044 45
471.7877 7
471.8711 28
471.9544 33
472.0378 16
472.1211 11
472.2044 14
472.2878 27
472.3711 13
472.4545 33
472.5378 21
472.6211 33
472.7045 10
472.7878 18
472.8712 39
472.9545 20
473.0378 11
473.1212 21
473.2045 17
473.2879 31
473.3712 27
473.4545 11
473.5379 38
473.6212 12
473.7046 18
473.7879 45
473.8712 24
473.9546 20
474.0379 17
474.1213 9
474.2046 30
474.2879 12
474.3713 16
474.4546 14
474.5380 23
474.6213 12
474.7046 20
474.7880 14
474.8713 33
474.9547 28
475.0380 27
475.1213 39
475.2047 56
475.2880 46
475.3714 46
475.4547 49
475.5380 37
475.6214 50
475.7047 62
475.7881 81
475.8714 61
475.9547 67
476.0381 74
476.1214 71
476.2048 50
476.2881 55
476.3714 49
476.4548 46
476.5381 34
476.6215 45
476.7048 38
476.7881 52
476.8715 25
476.9548 21
477.0382 23
477.1215 19
477.2048 14
477.2882 18
477.3715 5
477.4549 19
477.5382 43
477.6215 33
477.7049 15
477.7882 24
477.8716 31
477.9549 21
478.0382 46
478.1216 53
478.2049 61
478.2883 66
478.3716 71
478.4549 34
478.5383 84
478.6216 86
478.7050 57
478.7883 57
478.8716 42
478.9550 30
479.0383 60
479.1217 39
479.2050 31
479.2883 47
479.3717 36
479.4550 19
479.5384 19
479.6217 46
479.7050 20
479.7884 15
479.8717 13
479.9551 23
480.0384 11
480.1217 17
480.2051 25
480.2884 38
480.3718 10
480.4551 15
480.5384 20
480.6218 10
480.7051 45
480.7885 22
480.8718 19
480.9551 14
481.0385 25
481.1218 38
481.2052 22
481.2885 19
481.3718 26
481.4552 25
481.5385 14
481.6219 16
481.7052 12
481.7885 37
481.8719 37
481.9552 5
482.0386 6
482.1219 11
482.2052 20
482.2886 20
482.3719 16
482.4553 18
482.5386 15
482.6219 8
482.7053 11
482.7886 11
482.8720 5
482.9553 5
483.0386 4
483.1220 20
483.2053 38
483.2887 28
483.3720 11
483.4553 20
483.5387 20
483.6220 16
483.7054 26
483.7887 27
483.8720 48
483.9554 48
484.0387 36
484.1221 50
484.2054 48
484.2887 47
484.3721 41
484.4554 59
484.5388 47
484.6221 43
484.7054 45
484.7888 51
484.8721 44
484.9555 68
485.0388 38
485.1221 42
485.2055 34
485.2888 27
485.3722 43
485.4555 42
485.5388 25
485.6222 23
485.7055 8
485.7889 16
485.8722 14
485.9555 5
486.0389 19
486.1222 4
486.2056 6
486.2889 26
486.3722 14
486.4556 8
486.5389 21
486.6223 35
486.7056 10
486.7889 21
486.8723 48
486.9556 24
487.0390 57
487.1223 50
487.2056 56
487.2890 40
487.3723 63
487.4557 52
487.5390 65
487.6223 56
487.7057 63
487.7890 46
487.8724 37
487.9557 77
488.0390 41
488.1224 29
488.2057 48
488.2891 36
488.3724 56
488.4557 23
488.5391 20
488.6224 18
488.7058 28
488.7891 35
488.8724 36
488.9558 33
489.0391 37
489.1225 16
489.2058 26
489.2891 13
489.3725 15
489.4558 16
489.5392 41
489.6225 16
489.7058 8
489.7892 13
489.8725 13
489.9559 7
490.0392 33
490.1225 14
490.2059 41
490.2892 18
490.3726 28
490.4559 6
490.5392 11
490.6226 13
490.7059 45
490.7893 31
490.8726 16
490.9559 17
491.0393 7
491.1226 5
491.2060 5
491.2893 12
491.3726 9
491.4560 13
491.5393 14
491.6227 35
491.7060 22
491.7893 10
491.8727 9
491.9560 3
492.0394 16
492.1227 12
492.2060 18
492.2894 6
492.3727 12
492.4561 20
492.5394 15
492.6227 8
492.7061 17
492.7894 23
492.8728 22
492.9561 18
493.0394 36
493.1228 19
493.2061 54
493.2895 21
493.3728 18
493.4561 27
493.5395 15
493.6228 35
493.7062 20
493.7895 31
493.8728 31
493.9562 30
494.0395 13
494.1229 10
494.2062 9
494.2895 21
494.3729 29
494.4562 28
494.5396 12
494.6229 26
494.7062 11
494.7896 7
494.8729 8
494.9563 10
495.0396 22
495.1229 15
495.2063 14
495.2896 17
495.3730 31
495.4563 6
495.5396 28
495.6230 23
495.7063 18
495.7897 36
495.8730 8
495.9563 33
496.0397 20
496.1230 28
496.2064 43
496.2897 26
496.3730 40
496.4564 33
496.5397 12
496.6231 19
496.7064 52
496.7897 23
496.8731 18
496.9564 35
497.0398 11
497.1231 25
497.2064 11
497.2898 19
497.3731 24
497.4565 26
497.5398 13
497.6231 7
497.7065 10
497.7898 12
497.8732 15
497.9565 19
498.0398 11
498.1232 48
498.2065 10
498.2899 9
498.3732 16
498.4565 9
498.5399 17
498.6232 8
498.7066 8
498.7899 11
498.8732 20
498.9566 6
499.0399 26
499.1233 14
499.2066 28
499.2899 8
499.3733 23
499.4566 22
499.5400 18
499.6233 6
499.7066 13
499.7900 27
499.8733 17
499.9567 12
500.0400 2
500.1233 3
500.2067 14
500.2900 4
500.3734 6
500.4567 17
500.5400 8
500.6234 12
500.7067 42
500.7901 8
500.8734 23
500.9567 14
501.0401 28
501.1234 10
501.2068 9
501.2901 17
501.3734 53
501.4568 14
501.5401 12
501.6235 15
501.7068 15
501.7901 19
501.8735 12
501.9568 30
502.0402 16
502.1235 30
502.2068 22
502.2902 19
502.3735 26
502.4569 17
502.5402 14
502.6235 7
502.7069 34
502.7902 34
502.8736 18
502.9569 18
503.0402 24
503.1236 19
503.2069 6
503.2903 33
503.3736 11
503.4569 10
503.5403 12
503.6236 9
503.7070 27
503.7903 19
503.8736 34
503.9570 8
504.0403 22
504.1237 21
504.2070 15
504.2903 21
504.3737 54
504.4570 46
504.5404 22
504.6237 26
504.7070 21
504.7904 14
504.8737 20
504.9571 35
505.0404 24
505.1237 28
505.2071 22
505.2904 30
505.3738 10
505.4571 11
505.5404 15
505.6238 21
505.7071 38
505.7905 19
505.8738 9
505.9571 8
506.0405 26
506.1238 20
506.2072 9
506.2905 17
506.3738 21
506.4572 38
506.5405 38
506.6239 21
506.7072 6
506.7905 28
506.8739 11
506.9572 17
507.0406 29
507.1239 29
507.2072 7
507.2906 19
507.3739 8
507.4573 31
507.5406 7
507.6239 16
507.7073 23
507.7906 30
507.8740 21
507.9573 11
508.0406 15
508.1240 9
508.2073 36
508.2907 21
508.3740 5
508.4573 55
508.5407 19
508.6240 18
508.7074 7
508.7907 37
508.8740 15
508.9574 2
509.0407 32
509.1241 19
509.2074 29
509.2907 15
509.3741 11
509.4574 23
509.5408 16
509.6241 14
509.7074 17
509.7908 9
509.8741 19
509.9575 18
510.0408 8
510.1241 11
510.2075 16
510.2908 17
510.3742 22
510.4575 12
510.5408 5
510.6242 22
510.7075 14
510.7909 29
510.8742 27
510.9575 19
511.0409 17
511.1242 18
511.2076 32
511.2909 15
511.3742 28
511.4576 33
511.5409 12
511.6243 23
511.7076 14
511.7909 13
511.8743 6
511.9576 8
512.0410 5
512.1243 14
512.2076 24
512.2910 16
512.3743 6
512.4577 19
512.5410 5
512.6243 21
512.7077 6
512.7910 28
512.8744 29
512.9577 8
513.0410 27
513.1244 5
513.2077 8
513.2911 36
513.3744 7
513.4577 9
513.5411 10
513.6244 23
513.7078 13
513.7911 23
513.8744 5
513.9578 12
514.0411 13
514.1245 15
514.2078 32
514.2911 8
514.3745 16
514.4578 19
514.5412 31
514.6245 18
514.7078 5
514.7912 8
514.8745 3
514.9579 5
515.0412 23
515.1245 20
515.2079 25
515.2912 15
515.3746 16
515.4579 12
515.5412 10
515.6246 10
515.7079 16
515.7913 12
515.8746 37
515.9579 16
516.0413 10
516.1246 14
516.2080 20
516.2913 9
516.3746 16
516.4580 11
516.5413 6
516.6247 22
516.7080 17
516.7913 12
516.8747 11
516.9580 13
517.0414 11
517.1247 7
517.2080 34
517.2914 13
517.3747 13
517.4581 12
517.5414 23
517.6247 9
517.7081 14
517.7914 6
517.8748 10
517.9581 19
518.0414 10
518.1248 26
518.2081 8
518.2915 5
518.3748 14
518.4581 5
518.5415 9
518.6248 20
518.7082 12
518.7915 22
518.8748 3
518.9582 15
519.0415 17
519.1249 10
519.2082 17
519.2915 0
519.3749 8
519.4582 8
519.5416 13
519.6249 41
519.7082 25
519.7916 17
519.8749 21
519.9583 8
520.0416 24
520.1249 17
520.2083 5
520.2916 40
520.3750 14
520.4583 22
520.5416 7
520.6250 10
520.7083 12
520.7917 7
520.8750 15
520.9583 29
521.0417 10
521.1250 8
521.2084 10
521.2917 14
521.3750 14
521.4584 22
521.5417 17
521.6251 26
521.7084 22
521.7917 27
521.8751 19
521.9584 0
522.0418 19
522.1251 3
522.2084 23
522.2918 9
522.3751 18
522.4585 0
522.5418 7
522.6251 22
522.7085 4
522.7918 7
522.8752 19
522.9585 9
523.0418 14
523.1252 15
523.2085 18
523.2919 8
523.3752 28
523.4585 40
523.5419 14
523.6252 23
523.7086 6
523.7919 35
523.8752 23
523.9586 8
524.0419 4
524.1253 20
524.2086 10
524.2919 7
524.3753 14
524.4586 17
524.5420 13
524.6253 5
524.7086 14
524.7920 10
524.8753 13
524.9587 33
525.0420 15
525.1253 9
525.2087 15
525.2920 27
525.3754 27
525.4587 26
525.5420 6
525.6254 13
525.7087 10
525.7921 18
525.8754 16
525.9587 29
526.0421 7
526.1254 11
526.2088 8
526.2921 16
526.3754 21
526.4588 9
526.5421 8
526.6255 18
526.7088 8
526.7921 13
526.8755 21
526.9588 3
527.0422 6
527.1255 10
527.2088 5
527.2922 35
527.3755 17
527.4589 43
527.5422 11
527.6255 9
527.7089 22
527.7922 21
527.8756 12
527.9589 4
528.0422 0
528.1256 13
528.2089 20
528.2923 32
528.3756 9
528.4589 7
528.5423 22
528.6256 7
528.7090 17
528.7923 30
528.8756 12
528.9590 12
529.0423 9
529.1257 22
529.2090 42
529.2923 8
529.3757 31
529.4590 18
529.5424 11
529.6257 32
529.7090 11
529.7924 18
529.8757 15
529.9591 11
530.0424 30
530.1257 10
530.2091 5
530.2924 26
530.3758 24
530.4591 4
530.5424 6
530.6258 10
530.7091 28
530.7925 11
530.8758 4
530.9591 10
531.0425 18
531.1258 14
531.2092 6
531.2925 17
531.3758 9
531.4592 12
531.5425 5
531.6259 18
531.7092 22
531.7925 21
531.8759 11
531.9592 5
532.0426 7
532.1259 19
532.2092 2
532.2926 3
532.3759 16
532.4593 17
532.5426 16
532.6259 18
532.7093 5
532.7926 13
532.8760 4
532.9593 16
533.0426 17
533.1260 22
533.2093 14
533.2927 37
533.3760 19
533.4593 29
533.5427 24
533.6260 27
533.7094 15
533.7927 8
533.8760 7
533.9594 6
534.0427 6
534.1261 13
534.2094 13
534.2927 22
534.3761 16
534.4594 46
534.5428 5
534.6261 2
534.7094 24
534.7928 6
534.8761 15
534.9595 14
535.0428 18
535.1261 4
535.2095 8
535.2928 30
535.3762 17
535.4595 20
535.5428 18
535.6262 3
535.7095 6
535.7929 14
535.8762 6
535.9595 14
536.0429 10
536.1262 13
536.2096 14
536.2929 12
536.3762 5
536.4596 17
536.5429 26
536.6263 11
536.7096 22
536.7929 11
536.8763 36
536.9596 20
537.0430 14
537.1263 12
537.2096 10
537.2930 15
537.3763 8
537.4597 11
537.5430 20
537.6263 8
537.7097 1
537.7930 31
537.8764 4
537.9597 22
538.0430 19
538.1264 5
538.2097 21
538.2931 22
538.3764 15
538.4597 20
538.5431 6
538.6264 17
538.7098 9
538.7931 12
538.8764 20
538.9598 14
539.0431 25
539.1265 12
539.2098 30
539.2931 9
539.3765 19
539.4598 20
539.5432 17
539.6265 10
539.7098 14
539.7932 23
539.8765 8
539.9599 8
540.0432 5
540.1265 23
540.2099 9
540.2932 7
540.3766 12
540.4599 16
540.5432 20
540.6266 12
540.7099 2
540.7933 24
540.8766 6
540.9599 3
541.0433 1
541.1266 30
541.2100 17
541.2933 6
541.3766 25
541.4600 3
541.5433 9
541.6267 13
541.7100 26
541.7933 7
541.8767 28
541.9600 19
542.0434 12
542.1267 17
542.2100 9
542.2934 11
542.3767 23
542.4601 25
542.5434 18
542.6267 4
542.7101 18
542.7934 9
542.8768 10
542.9601 17
543.0434 7
543.1268 5
543.2101 8
543.2935 23
543.3768 41
543.4601 6
543.5435 9
543.6268 11
543.7102 21
543.7935 14
543.8768 11
543.9602 11
544.0435 17
544.1269 13
544.2102 4
544.2935 20
544.3769 14
544.4602 9
544.5436 15
544.6269 18
544.7102 27
544.7936 14
544.8769 7
544.9603 28
545.0436 12
545.1269 11
545.2103 15
545.2936 17
545.3770 24
545.4603 0
545.5436 10
545.6270 6
545.7103 10
545.7937 10
545.8770 26
545.9603 13
546.0437 21
546.1270 5
546.2104 23
546.2937 6
546.3770 25
546.4604 9
546.5437 6
546.6271 18
546.7104 1
546.7937 3
546.8771 10
546.9604 3
547.0438 9
547.1271 25
547.2104 9
547.2938 14
547.3771 32
547.4605 13
547.5438 4
547.6271 4
547.7105 41
547.7938 10
547.8772 4
547.9605 7
548.0438 4
548.1272 15
548.2105 13
548.2939 5
548.3772 17
548.4605 27
548.5439 9
548.6272 16
548.7106 6
548.7939 6
548.8772 4
548.9606 9
549.0439 10
549.1273 24
549.2106 6
549.2939 7
549.3773 8
549.4606 19
549.5440 21
549.6273 7
549.7106 11
549.7940 18
549.8773 6
549.9607 14
550.0440 16
550.1273 8
550.2107 3
550.2940 15
550.3774 12
550.4607 10
550.5440 18
550.6274 1
550.7107 15
550.7941 20
550.8774 12
550.9607 9
551.0441 12
551.1274 5
551.2108 26
551.2941 17
551.3774 3
551.4608 9
551.5441 15
551.6275 30
551.7108 32
551.7941 5
551.8775 4
551.9608 27
552.0442 15
552.1275 5
552.2108 12
552.2942 8
552.3775 26
552.4609 4
552.5442 17
552.6275 18
552.7109 14
552.7942 14
552.8776 4
552.9609 15
553.0442 15
553.1276 7
553.2109 15
553.2943 5
553.3776 9
553.4609 23
553.5443 36
553.6276 13
553.7110 8
553.7943 14
553.8776 5
553.9610 7
554.0443 17
554.1277 13
554.2110 22
554.2943 16
554.3777 10
554.4610 29
554.5444 13
554.6277 11
554.7110 20
554.7944 13
554.8777 9
554.9611 15
555.0444 28
555.1277 11
555.2111 12
555.2944 24
555.3778 2
555.4611 12
555.5444 27
555.6278 18
555.7111 14
555.7945 3
555.8778 22
555.9611 7
556.0445 12
556.1278 4
556.2112 9
556.2945 3
556.3778 1
556.4612 20
556.5445 42
556.6279 12
556.7112 33
556.7945 26
556.8779 10
556.9612 11
557.0446 15
557.1279 9
557.2112 14
557.2946 21
557.3779 11
557.4613 23
557.5446 6
557.6279 21
557.7113 15
557.7946 11
557.8780 21
557.9613 14
558.0446 12
558.1280 26
558.2113 43
558.2947 5
558.3780 8
558.4613 13
558.5447 34
558.6280 20
558.7114 9
558.7947 15
558.8780 25
558.9614 12
559.0447 12
559.1281 23
559.2114 8
559.2947 11
559.3781 49
559.4614 18
559.5448 23
559.6281 9
559.7114 15
559.7948 8
559.8781 8
559.9615 5
560.0448 13
560.1281 11
560.2115 17
560.2948 14
560.3782 9
560.4615 5
560.5448 9
560.6282 12
560.7115 18
560.7949 16
560.8782 10
560.9615 19
561.0449 6
561.1282 6
561.2116 8
561.2949 20
561.3782 16
561.4616 7
561.5449 9
561.6283 4
561.7116 32
561.7949 20
561.8783 18
561.9616 36
562.0450 7
562.1283 23
562.2116 6
562.2950 24
562.3783 17
562.4617 5
562.5450 11
562.6283 14
562.7117 8
562.7950 10
562.8784 20
562.9617 28
563.0450 2
563.1284 13
563.2117 7
563.2951 7
563.3784 8
563.4617 7
563.5451 22
563.6284 12
563.7118 13
563.7951 14
563.8784 12
563.9618 13
564.0451 3
564.1285 33
564.2118 21
564.2951 11
564.3785 27
564.4618 8
564.5452 1
564.6285 8
564.7118 26
564.7952 32
564.8785 3
564.9619 24
565.0452 29
565.1285 12
565.2119 14
565.2952 20
565.3786 23
565.4619 26
565.5452 10
565.6286 25
565.7119 2
565.7953 2
565.8786 28
565.9619 34
566.0453 16
566.1286 10
566.2120 14
566.2953 11
566.3786 17
566.4620 17
566.5453 6
566.6287 9
566.7120 21
566.7953 14
566.8787 28
566.9620 6
567.0454 29
567.1287 32
567.2120 18
567.2954 3
567.3787 5
567.4621 9
567.5454 21
567.6287 32
567.7121 5
567.7954 6
567.8788 9
567.9621 31
568.0454 9
568.1288 10
568.2121 35
568.2955 8
568.3788 16
568.4621 3
568.5455 2
568.6288 27
568.7122 16
568.7955 12
568.8788 11
568.9622 6
569.0455 11
569.1289 17
569.2122 6
569.2955 13
569.3789 27
569.4622 8
569.5456 10
569.6289 29
569.7122 4
569.7956 28
569.8789 20
569.9623 8
570.0456 10
570.1289 6
570.2123 15
570.2956 11
570.3790 32
570.4623 12
570.5456 12
570.6290 13
570.7123 10
570.7957 19
570.8790 7
570.9623 14
571.0457 3
571.1290 42
571.2124 25
571.2957 18
571.3790 19
571.4624 4
571.5457 11
571.6291 28
571.7124 9
571.7957 11
571.8791 15
571.9624 17
572.0458 34
572.1291 20
572.2124 23
572.2958 4
572.3791 15
572.4625 6
572.5458 43
572.6291 10
572.7125 22
572.7958 3
572.8792 3
572.9625 29
573.0458 4
573.1292 28
573.2125 29
573.2959 20
573.3792 17
573.4625 7
573.5459 18
573.6292 44
573.7126 12
573.7959 7
573.8792 15
573.9626 16
574.0459 16
574.1293 23
574.2126 8
574.2959 22
574.3793 16
574.4626 20
574.5460 2
574.6293 9
574.7126 2
574.7960 3
574.8793 14
574.9627 1
575.0460 16
575.1293 19
575.2127 24
575.2960 4
575.3794 22
575.4627 14
575.5460 10
575.6294 6
575.7127 8
575.7961 8
575.8794 3
575.9627 20
576.0461 28
576.1294 26
576.2128 2
576.2961 16
576.3794 3
576.4628 11
576.5461 18
576.6295 19
576.7128 19
576.7961 19
576.8795 21
576.9628 27
577.0462 18
577.1295 3
577.2128 14
577.2962 13
577.3795 16
577.4629 14
577.5462 12
577.6295 3
577.7129 5
577.7962 9
577.8796 5
577.9629 7
578.0462 27
578.1296 15
578.2129 6
578.2963 11
578.3796 16
578.4629 3
578.5463 15
578.6296 20
578.7130 5
578.7963 12
578.8796 6
578.9630 11
579.0463 25
579.1297 10
579.2130 24
579.2963 30
579.3797 7
579.4630 15
579.5464 10
579.6297 24
579.7130 18
579.7964 22
579.8797 10
579.9631 8
580.0464 20
580.1297 14
580.2131 10
580.2964 7
580.3798 18
580.4631 38
580.5464 16
580.6298 10
580.7131 3
580.7965 7
580.8798 8
580.9631 15
581.0465 46
581.1298 28
581.2132 1
581.2965 16
581.3798 7
581.4632 7
581.5465 12
581.6299 2
581.7132 13
581.7965 4
581.8799 34
581.9632 13
582.0466 7
582.1299 18
582.2132 17
582.2966 3
582.3799 18
582.4633 4
582.5466 6
582.6299 16
582.7133 0
582.7966 16
582.8800 36
582.9633 34
583.0466 17
583.1300 10
583.2133 20
583.2967 11
583.3800 27
583.4633 11
583.5467 19
583.6300 8
583.7134 1
583.7967 15
583.8800 9
583.9634 9
584.0467 28
584.1301 9
584.2134 9
584.2967 30
584.3801 12
584.4634 5
584.5468 2
584.6301 31
584.7134 23
584.7968 4
584.8801 10
584.9635 3
585.0468 31
585.1301 19
585.2135 15
585.2968 21
585.3802 17
585.4635 11
585.5468 2
585.6302 6
585.7135 9
585.7969 2
585.8802 7
585.9635 29
586.0469 40
586.1302 10
586.2136 13
586.2969 10
586.3802 8
586.4636 10
586.5469 10
586.6303 16
586.7136 4
586.7969 6
586.8803 5
586.9636 8
587.0470 17
587.1303 17
587.2136 17
587.2970 25
587.3803 21
587.4637 14
587.5470 27
587.6303 13
587.7137 7
587.7970 19
587.8804 13
587.9637 16
588.0470 13
588.1304 1
588.2137 37
588.2971 20
588.3804 21
588.4637 16
588.5471 31
588.6304 25
588.7138 7
588.7971 7
588.8804 14
588.9638 21
589.0471 8
589.1305 15
589.2138 14
589.2971 13
589.3805 32
589.4638 8
589.5472 23
589.6305 11
589.7138 21
589.7972 13
589.8805 18
589.9639 16
590.0472 10
590.1305 9
590.2139 6
590.2972 15
590.3806 6
590.4639 9
590.5472 10
590.6306 14
590.7139 18
590.7973 24
590.8806 15
590.9639 7
591.0473 19
591.1306 26
591.2140 19
591.2973 10
591.3806 11
591.4640 2
591.5473 19
591.6307 17
591.7140 20
591.7973 16
591.8807 8
591.9640 14
592.0474 8
592.1307 15
592.2140 8
592.2974 9
592.3807 28
592.4641 0
592.5474 18
592.6307 13
592.7141 5
592.7974 21
592.8808 22
592.9641 21
593.0474 2
593.1308 13
593.2141 10
593.2975 9
593.3808 19
593.4641 8
593.5475 4
593.6308 17
593.7142 6
593.7975 27
593.8808 14
593.9642 12
594.0475 11
594.1309 22
594.2142 13
594.2975 15
594.3809 22
594.4642 16
594.5476 24
594.6309 6
594.7142 5
594.7976 19
594.8809 15
594.9643 9
595.0476 19
595.1309 13
595.2143 52
595.2976 4
595.3810 4
595.4643 3
595.5476 12
595.6310 19
595.7143 4
595.7977 44
595.8810 2
595.9643 4
596.0477 26
596.1310 27
596.2144 5
596.2977 21
596.3810 28
596.4644 6
596.5477 45
596.6311 19
596.7144 30
596.7977 0
596.8811 6
596.9644 14
597.0478 13
597.1311 14
597.2144 1
597.2978 10
597.3811 16
597.4645 4
597.5478 22
597.6311 11
597.7145 12
597.7978 33
597.8812 1
597.9645 29
598.0478 12
598.1312 21
598.2145 18
598.2979 31
598.3812 30
598.4645 7
598.5479 9
598.6312 14
598.7146 27
598.7979 8
598.8812 11
598.9646 8
599.0479 19
599.1313 10
599.2146 10
599.2979 13
599.3813 5
599.4646 22
599.5480 16
599.6313 12
599.7146 5
599.7980 9
599.8813 16
599.9647 6
