0.0000 44
0.0833 26
0.1667 9
0.2500 12
0.3334 40
0.4167 31
0.5000 18
0.5834 6
0.6667 30
0.7501 39
0.8334 50
0.9167 38
1.0001 9
1.0834 17
1.1668 14
1.2501 66
1.3334 27
1.4168 27
1.5001 13
1.5835 30
1.6668 26
1.7501 23
1.8335 18
1.9168 46
2.0002 31
2.0835 24
2.1668 36
2.2502 25
2.3335 21
2.4169 47
2.5002 21
2.5835 55
2.6669 23
2.7502 34
2.8336 35
2.9169 84
3.0002 22
3.0836 25
3.1669 52
3.2503 17
3.3336 24
3.4169 19
3.5003 16
3.5836 36
3.6670 21
3.7503 21
3.8336 26
3.9170 32
4.0003 31
4.0837 36
4.1670 32
4.2503 9
4.3337 13
4.4170 9
4.5004 12
4.5837 15
4.6670 39
4.7504 18
4.8337 14
4.9171 38
5.0004 21
5.0837 45
5.1671 55
5.2504 33
5.3338 25
5.4171 16
5.5004 79
5.5838 44
5.6671 16
5.7505 41
5.8338 35
5.9171 19
6.0005 34
6.0838 45
6.1672 40
6.2505 23
6.3338 40
6.4172 29
6.5005 31
6.5839 34
6.6672 26
6.7505 9
6.8339 65
6.9172 16
7.0006 23
7.0839 20
7.1672 26
7.2506 38
7.3339 33
7.4173 39
7.5006 37
7.5839 30
7.6673 45
7.7506 13
7.8340 15
7.9173 31
8.0006 36
8.0840 23
8.1673 14
8.2507 40
8.3340 17
8.4173 7
8.5007 13
8.5840 34
8.6674 55
8.7507 39
8.8340 56
8.9174 26
9.0007 9
9.0841 21
9.1674 51
9.2507 58
9.3341 70
9.4174 10
9.5008 14
9.5841 32
9.6674 38
9.7508 26
9.8341 17
9.9175 24
10.0008 44
10.0841 9
10.1675 33
10.2508 50
10.3342 5
10.4175 18
10.5008 19
10.5842 36
10.6675 37
10.7509 29
10.8342 13
10.9175 12
11.0009 27
11.0842 17
11.1676 20
11.2509 12
11.3342 19
11.4176 27
11.5009 9
11.5843 47
11.6676 7
11.7509 19
11.8343 29
11.9176 36
12.0010 24
12.0843 47
12.1676 26
12.2510 25
12.3343 27
12.4177 20
12.5010 33
12.5843 7
12.6677 27
12.7510 23
12.8344 24
12.9177 20
13.0010 14
13.0844 15
13.1677 36
13.2511 11
13.3344 18
13.4177 2
13.5011 22
13.5844 12
13.6678 10
13.7511 19
13.8344 19
13.9178 2
14.0011 10
14.0845 13
14.1678 7
14.2511 5
14.3345 5
14.4178 6
14.5012 23
14.5845 7
14.6678 25
14.7512 4
14.8345 9
14.9179 5
15.0012 2
15.0845 5
15.1679 26
15.2512 15
15.3346 6
15.4179 2
15.5012 4
15.5846 6
15.6679 8
15.7513 9
15.8346 18
15.9179 12
16.0013 14
16.0846 14
16.1680 3
16.2513 8
16.3346 6
16.4180 5
16.5013 22
16.5847 21
16.6680 2
16.7513 34
16.8347 3
16.9180 8
17.0014 3
17.0847 1
17.1680 9
17.2514 7
17.3347 19
17.4181 14
17.5014 32
17.5847 6
17.6681 2
17.7514 12
17.8348 15
17.9181 9
18.0014 7
18.0848 2
18.1681 3
18.2515 15
18.3348 24
18.4181 8
18.5015 9
18.5848 12
18.6682 4
18.7515 9
18.8348 11
18.9182 4
19.0015 2
19.0849 29
19.1682 7
19.2515 14
19.3349 6
19.4182 11
19.5016 5
19.5849 13
19.6682 9
19.7516 46
19.8349 4
19.9183 4
20.0016 7
20.0849 42
20.1683 11
20.2516 0
20.3350 17
20.4183 12
20.5016 10
20.5850 4
20.6683 10
20.7517 11
20.8350 6
20.9183 4
21.0017 2
21.0850 8
21.1684 22
21.2517 13
21.3350 10
21.4184 2
21.5017 2
21.5851 10
21.6684 5
21.7517 9
21.8351 17
21.9184 6
22.0018 16
22.0851 4
22.1684 20
22.2518 5
22.3351 14
22.4185 9
22.5018 4
22.5851 15
22.6685 11
22.7518 2
22.8352 6
22.9185 6
23.0018 12
23.0852 31
23.1685 1
23.2519 9
23.3352 12
23.4185 14
23.5019 16
23.5852 12
23.6686 12
23.7519 17
23.8352 6
23.9186 9
24.0019 4
24.0853 3
24.1686 15
24.2519 5
24.3353 3
24.4186 21
24.5020 19
24.5853 0
24.6686 15
24.7520 9
24.8353 17
24.9187 7
25.0020 17
25.0853 2
25.1687 22
25.2520 11
25.3354 8
25.4187 17
25.5020 9
25.5854 20
25.6687 5
25.7521 11
25.8354 15
25.9187 1
26.0021 16
26.0854 18
26.1688 19
26.2521 57
26.3354 10
26.4188 20
26.5021 5
26.5855 9
26.6688 34
26.7521 17
26.8355 25
26.9188 28
27.0022 22
27.0855 24
27.1688 15
27.2522 16
27.3355 2
27.4189 12
27.5022 8
27.5855 1
27.6689 17
27.7522 13
27.8356 1
27.9189 23
28.0022 4
28.0856 0
28.1689 23
28.2523 3
28.3356 14
28.4189 9
28.5023 15
28.5856 13
28.6690 13
28.7523 10
28.8356 0
28.9190 18
29.0023 21
29.0857 8
29.1690 6
29.2523 11
29.3357 12
29.4190 9
29.5024 22
29.5857 8
29.6690 18
29.7524 9
29.8357 4
29.9191 25
30.0024 24
30.0857 4
30.1691 24
30.2524 12
30.3358 1
30.4191 15
30.5024 30
30.5858 6
30.6691 3
30.7525 5
30.8358 6
30.9191 1
31.0025 2
31.0858 0
31.1692 6
31.2525 25
31.3358 3
31.4192 17
31.5025 5
31.5859 11
31.6692 3
31.7525 25
31.8359 4
31.9192 3
32.0026 16
32.0859 29
32.1692 13
32.2526 18
32.3359 4
32.4193 17
32.5026 2
32.5859 10
32.6693 20
32.7526 10
32.8360 2
32.9193 9
33.0026 28
33.0860 13
33.1693 8
33.2527 10
33.3360 11
33.4193 14
33.5027 10
33.5860 22
33.6694 27
33.7527 3
33.8360 5
33.9194 11
34.0027 15
34.0861 3
34.1694 7
34.2527 8
34.3361 0
34.4194 12
34.5028 12
34.5861 16
34.6694 18
34.7528 5
34.8361 14
34.9195 4
35.0028 13
35.0861 17
35.1695 14
35.2528 12
35.3362 6
35.4195 42
35.5028 9
35.5862 15
35.6695 12
35.7529 13
35.8362 5
35.9195 15
36.0029 10
36.0862 14
36.1696 12
36.2529 21
36.3362 9
36.4196 6
36.5029 15
36.5863 10
36.6696 11
36.7529 6
36.8363 5
36.9196 7
37.0030 23
37.0863 22
37.1696 14
37.2530 5
37.3363 5
37.4197 20
37.5030 7
37.5863 21
37.6697 5
37.7530 24
37.8364 6
37.9197 22
38.0030 20
38.0864 19
38.1697 2
38.2531 17
38.3364 7
38.4197 16
38.5031 3
38.5864 19
38.6698 6
38.7531 10
38.8364 9
38.9198 19
39.0031 13
39.0865 13
39.1698 9
39.2531 12
39.3365 8
39.4198 22
39.5032 10
39.5865 12
39.6698 8
39.7532 6
39.8365 20
39.9199 5
40.0032 10
40.0865 7
40.1699 18
40.2532 33
40.3366 24
40.4199 15
40.5032 6
40.5866 18
40.6699 2
40.7533 4
40.8366 12
40.9199 10
41.0033 50
41.0866 14
41.1700 7
41.2533 14
41.3366 2
41.4200 3
41.5033 19
41.5867 9
41.6700 28
41.7533 4
41.8367 15
41.9200 9
42.0034 18
42.0867 15
42.1700 13
42.2534 0
42.3367 12
42.4201 5
42.5034 5
42.5867 26
42.6701 2
42.7534 3
42.8368 11
42.9201 13
43.0034 10
43.0868 9
43.1701 16
43.2535 27
43.3368 5
43.4201 5
43.5035 17
43.5868 19
43.6702 2
43.7535 8
43.8368 12
43.9202 8
44.0035 7
44.0869 20
44.1702 24
44.2535 28
44.3369 29
44.4202 15
44.5036 23
44.5869 2
44.6702 5
44.7536 2
44.8369 18
44.9203 9
45.0036 5
45.0869 35
45.1703 29
45.2536 3
45.3370 0
45.4203 34
45.5036 13
45.5870 14
45.6703 18
45.7537 22
45.8370 9
45.9203 12
46.0037 8
46.0870 23
46.1704 6
46.2537 34
46.3370 8
46.4204 19
46.5037 32
46.5871 5
46.6704 35
46.7537 5
46.8371 19
46.9204 19
47.0038 13
47.0871 15
47.1704 6
47.2538 22
47.3371 15
47.4205 16
47.5038 9
47.5871 15
47.6705 8
47.7538 5
47.8372 0
47.9205 6
48.0038 41
48.0872 8
48.1705 20
48.2539 6
48.3372 24
48.4205 16
48.5039 29
48.5872 12
48.6706 8
48.7539 9
48.8372 6
48.9206 4
49.0039 6
49.0873 15
49.1706 9
49.2539 4
49.3373 1
49.4206 22
49.5040 14
49.5873 22
49.6706 8
49.7540 6
49.8373 36
49.9207 11
50.0040 24
50.0873 0
50.1707 7
50.2540 7
50.3374 9
50.4207 13
50.5040 7
50.5874 17
50.6707 17
50.7541 5
50.8374 20
50.9207 7
51.0041 16
51.0874 19
51.1708 4
51.2541 5
51.3374 3
51.4208 10
51.5041 18
51.5875 56
51.6708 12
51.7541 17
51.8375 9
51.9208 25
52.0042 14
52.0875 9
52.1708 2
52.2542 15
52.3375 20
52.4209 3
52.5042 11
52.5875 17
52.6709 6
52.7542 9
52.8376 31
52.9209 14
53.0042 4
53.0876 16
53.1709 18
53.2543 23
53.3376 26
53.4209 15
53.5043 23
53.5876 24
53.6710 18
53.7543 16
53.8376 2
53.9210 26
54.0043 6
54.0877 22
54.1710 25
54.2543 9
54.3377 10
54.4210 9
54.5044 10
54.5877 13
54.6710 18
54.7544 22
54.8377 19
54.9211 10
55.0044 9
55.0877 0
55.1711 16
55.2544 9
55.3378 23
55.4211 9
55.5044 21
55.5878 2
55.6711 0
55.7545 13
55.8378 20
55.9211 7
56.0045 19
56.0878 7
56.1712 36
56.2545 13
56.3378 22
56.4212 46
56.5045 4
56.5879 17
56.6712 13
56.7545 23
56.8379 22
56.9212 2
57.0046 16
57.0879 16
57.1712 4
57.2546 31
57.3379 12
57.4213 7
57.5046 11
57.5879 18
57.6713 15
57.7546 33
57.8380 3
57.9213 4
58.0046 4
58.0880 9
58.1713 8
58.2547 8
58.3380 18
58.4213 28
58.5047 13
58.5880 7
58.6714 21
58.7547 15
58.8380 7
58.9214 9
59.0047 26
59.0881 3
59.1714 16
59.2547 27
59.3381 11
59.4214 29
59.5048 10
59.5881 7
59.6714 7
59.7548 7
59.8381 1
59.9215 5
60.0048 3
60.0881 3
60.1715 11
60.2548 29
60.3382 14
60.4215 8
60.5048 21
60.5882 25
60.6715 17
60.7549 16
60.8382 9
60.9215 33
61.0049 0
61.0882 15
61.1716 14
61.2549 5
61.3382 4
61.4216 9
61.5049 27
61.5883 4
61.6716 2
61.7549 9
61.8383 9
61.9216 3
62.0050 9
62.0883 7
62.1716 1
62.2550 8
62.3383 39
62.4217 28
62.5050 0
62.5883 6
62.6717 5
62.7550 7
62.8384 9
62.9217 16
63.0050 4
63.0884 15
63.1717 8
63.2551 9
63.3384 28
63.4217 28
63.5051 31
63.5884 4
63.6718 13
63.7551 1
63.8384 9
63.9218 4
64.0051 1
64.0885 44
64.1718 5
64.2551 25
64.3385 32
64.4218 17
64.5052 40
64.5885 7
64.6718 13
64.7552 16
64.8385 5
64.9219 11
65.0052 18
65.0885 11
65.1719 22
65.2552 12
65.3386 19
65.4219 12
65.5052 39
65.5886 17
65.6719 17
65.7553 6
65.8386 15
65.9219 13
66.0053 4
66.0886 8
66.1720 5
66.2553 28
66.3386 17
66.4220 24
66.5053 9
66.5887 9
66.6720 16
66.7553 28
66.8387 11
66.9220 19
67.0054 17
67.0887 15
67.1720 10
67.2554 9
67.3387 15
67.4221 6
67.5054 8
67.5887 36
67.6721 12
67.7554 14
67.8388 31
67.9221 13
68.0054 5
68.0888 11
68.1721 7
68.2555 6
68.3388 20
68.4221 8
68.5055 19
68.5888 13
68.6722 18
68.7555 24
68.8388 13
68.9222 15
69.0055 1
69.0889 6
69.1722 7
69.2555 3
69.3389 11
69.4222 9
69.5056 3
69.5889 8
69.6722 17
69.7556 13
69.8389 20
69.9223 7
70.0056 10
70.0889 23
70.1723 8
70.2556 18
70.3390 47
70.4223 10
70.5056 19
70.5890 20
70.6723 11
70.7557 16
70.8390 4
70.9223 8
71.0057 21
71.0890 14
71.1724 30
71.2557 32
71.3390 2
71.4224 8
71.5057 10
71.5891 25
71.6724 1
71.7557 24
71.8391 53
71.9224 6
72.0058 9
72.0891 19
72.1724 13
72.2558 7
72.3391 29
72.4225 30
72.5058 36
72.5891 23
72.6725 25
72.7558 8
72.8392 32
72.9225 15
73.0058 17
73.0892 7
73.1725 11
73.2559 2
73.3392 7
73.4225 8
73.5059 16
73.5892 18
73.6726 7
73.7559 24
73.8392 8
73.9226 23
74.0059 7
74.0893 15
74.1726 15
74.2559 13
74.3393 8
74.4226 12
74.5060 5
74.5893 22
74.6726 18
74.7560 7
74.8393 25
74.9227 14
75.0060 16
75.0893 5
75.1727 19
75.2560 9
75.3394 14
75.4227 15
75.5060 7
75.5894 7
75.6727 10
75.7561 18
75.8394 7
75.9227 4
76.0061 11
76.0894 18
76.1728 25
76.2561 21
76.3394 12
76.4228 5
76.5061 9
76.5895 13
76.6728 6
76.7561 27
76.8395 10
76.9228 19
77.0062 17
77.0895 2
77.1728 6
77.2562 4
77.3395 25
77.4229 23
77.5062 17
77.5895 9
77.6729 13
77.7562 12
77.8396 14
77.9229 15
78.0062 7
78.0896 20
78.1729 70
78.2563 9
78.3396 10
78.4229 16
78.5063 20
78.5896 9
78.6730 2
78.7563 11
78.8396 4
78.9230 24
79.0063 31
79.0897 6
79.1730 21
79.2563 31
79.3397 11
79.4230 12
79.5064 15
79.5897 20
79.6730 16
79.7564 28
79.8397 11
79.9231 45
80.0064 6
80.0897 9
80.1731 5
80.2564 22
80.3398 27
80.4231 30
80.5064 20
80.5898 9
80.6731 9
80.7565 18
80.8398 25
80.9231 19
81.0065 4
81.0898 10
81.1732 18
81.2565 3
81.3398 8
81.4232 17
81.5065 26
81.5899 12
81.6732 8
81.7565 10
81.8399 12
81.9232 16
82.0066 4
82.0899 16
82.1732 19
82.2566 1
82.3399 14
82.4233 24
82.5066 8
82.5899 26
82.6733 21
82.7566 31
82.8400 24
82.9233 6
83.0066 9
83.0900 4
83.1733 5
83.2567 10
83.3400 17
83.4233 13
83.5067 19
83.5900 15
83.6734 34
83.7567 16
83.8400 40
83.9234 23
84.0067 29
84.0901 1
84.1734 9
84.2567 5
84.3401 2
84.4234 26
84.5068 26
84.5901 22
84.6734 8
84.7568 4
84.8401 24
84.9235 18
85.0068 24
85.0901 32
85.1735 24
85.2568 51
85.3402 8
85.4235 37
85.5068 7
85.5902 9
85.6735 22
85.7569 13
85.8402 23
85.9235 31
86.0069 12
86.0902 16
86.1736 22
86.2569 26
86.3402 8
86.4236 66
86.5069 20
86.5903 3
86.6736 31
86.7569 32
86.8403 12
86.9236 22
87.0070 4
87.0903 35
87.1736 21
87.2570 4
87.3403 21
87.4237 20
87.5070 18
87.5903 18
87.6737 2
87.7570 8
87.8404 14
87.9237 24
88.0070 33
88.0904 15
88.1737 16
88.2571 6
88.3404 19
88.4237 15
88.5071 3
88.5904 20
88.6738 19
88.7571 23
88.8404 4
88.9238 15
89.0071 14
89.0905 15
89.1738 13
89.2571 9
89.3405 17
89.4238 20
89.5072 11
89.5905 26
89.6738 26
89.7572 16
89.8405 31
89.9239 23
90.0072 13
90.0905 27
90.1739 23
90.2572 10
90.3406 7
90.4239 22
90.5072 27
90.5906 23
90.6739 6
90.7573 14
90.8406 11
90.9239 11
91.0073 2
91.0906 28
91.1740 7
91.2573 8
91.3406 18
91.4240 25
91.5073 24
91.5907 2
91.6740 12
91.7573 4
91.8407 6
91.9240 21
92.0074 9
92.0907 18
92.1740 1
92.2574 7
92.3407 19
92.4241 5
92.5074 12
92.5907 35
92.6741 19
92.7574 8
92.8408 9
92.9241 16
93.0074 9
93.0908 16
93.1741 19
93.2575 5
93.3408 6
93.4241 6
93.5075 9
93.5908 11
93.6742 1
93.7575 13
93.8408 26
93.9242 28
94.0075 17
94.0909 16
94.1742 14
94.2575 39
94.3409 15
94.4242 26
94.5076 26
94.5909 20
94.6742 12
94.7576 1
94.8409 10
94.9243 4
95.0076 6
95.0909 6
95.1743 22
95.2576 15
95.3410 12
95.4243 13
95.5076 28
95.5910 27
95.6743 6
95.7577 12
95.8410 9
95.9243 13
96.0077 22
96.0910 11
96.1744 15
96.2577 12
96.3410 6
96.4244 15
96.5077 17
96.5911 26
96.6744 16
96.7577 9
96.8411 7
96.9244 17
97.0078 13
97.0911 17
97.1744 15
97.2578 17
97.3411 8
97.4245 7
97.5078 28
97.5911 9
97.6745 9
97.7578 7
97.8412 22
97.9245 16
98.0078 22
98.0912 4
98.1745 26
98.2579 14
98.3412 13
98.4245 34
98.5079 16
98.5912 26
98.6746 8
98.7579 8
98.8412 13
98.9246 13
99.0079 24
99.0913 23
99.1746 8
99.2579 10
99.3413 28
99.4246 38
99.5080 15
99.5913 10
99.6746 29
99.7580 30
99.8413 36
99.9247 15
100.0080 25
100.0913 27
100.1747 29
100.2580 36
100.3414 11
100.4247 10
100.5080 11
100.5914 16
100.6747 30
100.7581 9
100.8414 14
100.9247 8
101.0081 17
101.0914 23
101.1748 16
101.2581 41
101.3414 32
101.4248 34
101.5081 30
101.5915 19
101.6748 28
101.7581 23
101.8415 22
101.9248 18
102.0082 14
102.0915 2
102.1748 31
102.2582 23
102.3415 37
102.4249 27
102.5082 23
102.5915 11
102.6749 12
102.7582 29
102.8416 43
102.9249 16
103.0082 17
103.0916 35
103.1749 19
103.2583 19
103.3416 27
103.4249 11
103.5083 46
103.5916 8
103.6750 22
103.7583 32
103.8416 25
103.9250 12
104.0083 23
104.0917 40
104.1750 28
104.2583 23
104.3417 15
104.4250 35
104.5084 24
104.5917 30
104.6750 38
104.7584 13
104.8417 4
104.9251 14
105.0084 11
105.0917 8
105.1751 30
105.2584 12
105.3418 19
105.4251 26
105.5084 16
105.5918 28
105.6751 46
105.7585 31
105.8418 14
105.9251 26
106.0085 50
106.0918 13
106.1752 19
106.2585 12
106.3418 11
106.4252 2
106.5085 31
106.5919 12
106.6752 14
106.7585 7
106.8419 6
106.9252 25
107.0086 36
107.0919 59
107.1752 37
107.2586 31
107.3419 30
107.4253 21
107.5086 17
107.5919 17
107.6753 14
107.7586 27
107.8420 22
107.9253 4
108.0086 14
108.0920 16
108.1753 11
108.2587 31
108.3420 21
108.4253 37
108.5087 18
108.5920 14
108.6754 36
108.7587 15
108.8420 19
108.9254 38
109.0087 9
109.0921 7
109.1754 45
109.2587 29
109.3421 25
109.4254 21
109.5088 11
109.5921 42
109.6754 25
109.7588 13
109.8421 24
109.9255 46
110.0088 9
110.0921 14
110.1755 17
110.2588 9
110.3422 19
110.4255 24
110.5088 6
110.5922 16
110.6755 21
110.7589 8
110.8422 10
110.9255 6
111.0089 23
111.0922 17
111.1756 24
111.2589 17
111.3422 12
111.4256 43
111.5089 21
111.5923 10
111.6756 12
111.7589 14
111.8423 17
111.9256 3
112.0090 27
112.0923 3
112.1756 6
112.2590 29
112.3423 5
112.4257 16
112.5090 9
112.5923 23
112.6757 19
112.7590 7
112.8424 37
112.9257 10
113.0090 31
113.0924 21
113.1757 19
113.2591 10
113.3424 7
113.4257 22
113.5091 45
113.5924 15
113.6758 24
113.7591 0
113.8424 13
113.9258 15
114.0091 17
114.0925 7
114.1758 11
114.2591 24
114.3425 16
114.4258 7
114.5092 13
114.5925 7
114.6758 27
114.7592 22
114.8425 18
114.9259 17
115.0092 7
115.0925 6
115.1759 13
115.2592 7
115.3426 6
115.4259 34
115.5092 27
115.5926 19
115.6759 7
115.7593 9
115.8426 18
115.9259 10
116.0093 30
116.0926 15
116.1760 19
116.2593 35
116.3426 43
116.4260 16
116.5093 14
116.5927 22
116.6760 9
116.7593 31
116.8427 17
116.9260 12
117.0094 25
117.0927 17
117.1760 15
117.2594 24
117.3427 11
117.4261 29
117.5094 35
117.5927 41
117.6761 52
117.7594 50
117.8428 37
117.9261 31
118.0094 21
118.0928 17
118.1761 23
118.2595 14
118.3428 16
118.4261 18
118.5095 35
118.5928 28
118.6762 26
118.7595 33
118.8428 53
118.9262 40
119.0095 31
119.0929 49
119.1762 38
119.2595 41
119.3429 42
119.4262 46
119.5096 15
119.5929 17
119.6762 31
119.7596 2
119.8429 15
119.9263 29
120.0096 24
120.0929 26
120.1763 13
120.2596 24
120.3430 22
120.4263 65
120.5096 60
120.5930 70
120.6763 45
120.7597 42
120.8430 40
120.9263 66
121.0097 31
121.0930 36
121.1764 18
121.2597 12
121.3430 12
121.4264 9
121.5097 37
121.5931 35
121.6764 40
121.7597 67
121.8431 26
121.9264 50
122.0098 51
122.0931 51
122.1764 37
122.2598 44
122.3431 21
122.4265 27
122.5098 39
122.5931 21
122.6765 50
122.7598 29
122.8432 39
122.9265 39
123.0098 28
123.0932 40
123.1765 37
123.2599 34
123.3432 26
123.4265 11
123.5099 14
123.5932 28
123.6766 43
123.7599 18
123.8432 22
123.9266 15
124.0099 32
124.0933 5
124.1766 13
124.2599 32
124.3433 21
124.4266 31
124.5100 32
124.5933 19
124.6766 42
124.7600 43
124.8433 24
124.9267 18
125.0100 27
125.0933 16
125.1767 20
125.2600 45
125.3434 31
125.4267 14
125.5100 15
125.5934 27
125.6767 31
125.7601 68
125.8434 21
125.9267 30
126.0101 45
126.0934 25
126.1768 25
126.2601 22
126.3434 35
126.4268 18
126.5101 30
126.5935 40
126.6768 41
126.7601 47
126.8435 14
126.9268 11
127.0102 24
127.0935 18
127.1768 26
127.2602 15
127.3435 28
127.4269 19
127.5102 12
127.5935 17
127.6769 31
127.7602 22
127.8436 31
127.9269 17
128.0102 10
128.0936 28
128.1769 34
128.2603 15
128.3436 3
128.4269 7
128.5103 16
128.5936 13
128.6770 13
128.7603 18
128.8436 23
128.9270 27
129.0103 30
129.0937 26
129.1770 20
129.2603 42
129.3437 9
129.4270 32
129.5104 22
129.5937 24
129.6770 15
129.7604 29
129.8437 18
129.9271 24
130.0104 19
130.0937 6
130.1771 20
130.2604 66
130.3438 29
130.4271 10
130.5104 22
130.5938 10
130.6771 12
130.7605 7
130.8438 28
130.9271 30
131.0105 26
131.0938 33
131.1772 9
131.2605 21
131.3438 19
131.4272 36
131.5105 26
131.5939 7
131.6772 16
131.7605 12
131.8439 29
131.9272 29
132.0106 26
132.0939 30
132.1772 19
132.2606 13
132.3439 22
132.4273 27
132.5106 22
132.5939 6
132.6773 21
132.7606 4
132.8440 18
132.9273 21
133.0106 13
133.0940 8
133.1773 19
133.2607 23
133.3440 27
133.4273 40
133.5107 18
133.5940 19
133.6774 14
133.7607 35
133.8440 22
133.9274 11
134.0107 27
134.0941 27
134.1774 18
134.2607 17
134.3441 26
134.4274 17
134.5108 15
134.5941 51
134.6774 28
134.7608 60
134.8441 36
134.9275 46
135.0108 55
135.0941 63
135.1775 24
135.2608 74
135.3442 38
135.4275 27
135.5108 18
135.5942 59
135.6775 26
135.7609 39
135.8442 31
135.9275 15
136.0109 21
136.0942 36
136.1776 86
136.2609 47
136.3442 26
136.4276 47
136.5109 58
136.5943 64
136.6776 56
136.7609 29
136.8443 35
136.9276 55
137.0110 47
137.0943 25
137.1776 29
137.2610 22
137.3443 51
137.4277 28
137.5110 14
137.5943 67
137.6777 29
137.7610 110
137.8444 50
137.9277 67
138.0110 80
138.0944 68
138.1777 87
138.2611 61
138.3444 52
138.4277 33
138.5111 39
138.5944 18
138.6778 28
138.7611 33
138.8444 38
138.9278 41
139.0111 56
139.0945 39
139.1778 70
139.2611 47
139.3445 65
139.4278 74
139.5112 68
139.5945 48
139.6778 46
139.7612 53
139.8445 35
139.9279 28
140.0112 33
140.0945 35
140.1779 25
140.2612 24
140.3446 25
140.4279 25
140.5112 39
140.5946 61
140.6779 59
140.7613 52
140.8446 78
140.9279 50
141.0113 65
141.0946 57
141.1780 41
141.2613 46
141.3446 30
141.4280 9
141.5113 33
141.5947 50
141.6780 37
141.7613 13
141.8447 24
141.9280 69
142.0114 42
142.0947 76
142.1780 39
142.2614 45
142.3447 35
142.4281 58
142.5114 54
142.5947 46
142.6781 38
142.7614 24
142.8448 30
142.9281 45
143.0114 27
143.0948 45
143.1781 27
143.2615 24
143.3448 49
143.4281 46
143.5115 81
143.5948 35
143.6782 71
143.7615 56
143.8448 56
143.9282 46
144.0115 47
144.0949 42
144.1782 24
144.2615 27
144.3449 26
144.4282 27
144.5116 22
144.5949 31
144.6782 15
144.7616 28
144.8449 46
144.9283 22
145.0116 38
145.0949 41
145.1783 42
145.2616 38
145.3450 39
145.4283 68
145.5116 46
145.5950 50
145.6783 38
145.7617 34
145.8450 36
145.9283 34
146.0117 29
146.0950 36
146.1784 24
146.2617 25
146.3450 19
146.4284 23
146.5117 49
146.5951 27
146.6784 27
146.7617 24
146.8451 28
146.9284 18
147.0118 22
147.0951 14
147.1784 34
147.2618 17
147.3451 16
147.4285 24
147.5118 10
147.5951 29
147.6785 24
147.7618 16
147.8452 9
147.9285 14
148.0118 17
148.0952 20
148.1785 8
148.2619 22
148.3452 19
148.4285 14
148.5119 44
148.5952 21
148.6786 19
148.7619 16
148.8452 14
148.9286 18
149.0119 7
149.0953 9
149.1786 12
149.2619 5
149.3453 20
149.4286 9
149.5120 38
149.5953 19
149.6786 50
149.7620 30
149.8453 29
149.9287 24
150.0120 15
150.0953 9
150.1787 31
150.2620 33
150.3454 22
150.4287 28
150.5120 40
150.5954 32
150.6787 20
150.7621 8
150.8454 21
150.9287 33
151.0121 31
151.0954 43
151.1788 42
151.2621 19
151.3454 20
151.4288 32
151.5121 32
151.5955 33
151.6788 31
151.7621 10
151.8455 13
151.9288 22
152.0122 47
152.0955 47
152.1788 40
152.2622 66
152.3455 37
152.4289 41
152.5122 56
152.5955 70
152.6789 53
152.7622 85
152.8456 36
152.9289 51
153.0122 34
153.0956 18
153.1789 22
153.2623 21
153.3456 21
153.4289 53
153.5123 50
153.5956 56
153.6790 72
153.7623 118
153.8456 86
153.9290 89
154.0123 126
154.0957 66
154.1790 95
154.2623 85
154.3457 55
154.4290 51
154.5124 57
154.5957 30
154.6790 30
154.7624 56
154.8457 66
154.9291 35
155.0124 44
155.0957 77
155.1791 104
155.2624 113
155.3458 121
155.4291 157
155.5124 149
155.5958 96
155.6791 87
155.7625 78
155.8458 54
155.9291 62
156.0125 40
156.0958 50
156.1792 66
156.2625 54
156.3458 43
156.4292 75
156.5125 88
156.5959 119
156.6792 137
156.7625 141
156.8459 123
156.9292 135
157.0126 111
157.0959 119
157.1792 90
157.2626 73
157.3459 55
157.4293 33
157.5126 45
157.5959 33
157.6793 33
157.7626 66
157.8460 100
157.9293 78
158.0126 73
158.0960 126
158.1793 116
158.2627 137
158.3460 120
158.4293 138
158.5127 108
158.5960 99
158.6794 78
158.7627 69
158.8460 54
158.9294 34
159.0127 57
159.0961 57
159.1794 66
159.2627 42
159.3461 61
159.4294 57
159.5128 80
159.5961 120
159.6794 92
159.7628 106
159.8461 119
159.9295 123
160.0128 71
160.0961 90
160.1795 47
160.2628 39
160.3462 24
160.4295 17
160.5128 24
160.5962 24
160.6795 39
160.7629 39
160.8462 68
160.9295 76
161.0129 85
161.0962 95
161.1796 81
161.2629 70
161.3462 51
161.4296 60
161.5129 74
161.5963 43
161.6796 36
161.7629 23
161.8463 33
161.9296 23
162.0130 13
162.0963 4
162.1796 24
162.2630 33
162.3463 46
162.4297 31
162.5130 72
162.5963 56
162.6797 39
162.7630 34
162.8464 66
162.9297 74
163.0130 34
163.0964 20
163.1797 25
163.2631 13
163.3464 33
163.4297 37
163.5131 45
163.5964 27
163.6798 11
163.7631 36
163.8464 30
163.9298 33
164.0131 12
164.0965 13
164.1798 36
164.2631 37
164.3465 29
164.4298 20
164.5132 53
164.5965 18
164.6798 24
164.7632 18
164.8465 12
164.9299 35
165.0132 9
165.0965 20
165.1799 55
165.2632 16
165.3466 13
165.4299 14
165.5132 24
165.5966 13
165.6799 17
165.7633 34
165.8466 19
165.9299 16
166.0133 24
166.0966 13
166.1800 25
166.2633 12
166.3466 23
166.4300 19
166.5133 18
166.5967 9
166.6800 23
166.7633 18
166.8467 33
166.9300 29
167.0134 21
167.0967 28
167.1800 7
167.2634 15
167.3467 16
167.4301 13
167.5134 16
167.5967 35
167.6801 22
167.7634 36
167.8468 34
167.9301 18
168.0134 42
168.0968 46
168.1801 26
168.2635 28
168.3468 55
168.4301 34
168.5135 46
168.5968 52
168.6802 22
168.7635 16
168.8468 32
168.9302 18
169.0135 38
169.0969 19
169.1802 73
169.2635 31
169.3469 31
169.4302 41
169.5136 49
169.5969 119
169.6802 88
169.7636 89
169.8469 86
169.9303 115
170.0136 61
170.0969 76
170.1803 41
170.2636 28
170.3470 15
170.4303 24
170.5136 9
170.5970 44
170.6803 50
170.7637 69
170.8470 60
170.9303 93
171.0137 88
171.0970 112
171.1804 117
171.2637 116
171.3470 134
171.4304 75
171.5137 89
171.5971 88
171.6804 56
171.7637 46
171.8471 43
171.9304 45
172.0138 35
172.0971 40
172.1804 60
172.2638 87
172.3471 81
172.4305 102
172.5138 122
172.5971 162
172.6805 116
172.7638 143
172.8472 145
172.9305 188
173.0138 128
173.0972 62
173.1805 58
173.2639 33
173.3472 29
173.4305 33
173.5139 52
173.5972 79
173.6806 98
173.7639 83
173.8472 128
173.9306 127
174.0139 127
174.0973 155
174.1806 173
174.2639 182
174.3473 128
174.4306 119
174.5140 90
174.5973 68
174.6806 56
174.7640 62
174.8473 31
174.9307 55
175.0140 42
175.0973 56
175.1807 90
175.2640 106
175.3474 110
175.4307 114
175.5140 150
175.5974 153
175.6807 157
175.7641 129
175.8474 103
175.9307 120
176.0141 110
176.0974 68
176.1808 78
176.2641 32
176.3474 41
176.4308 36
176.5141 57
176.5975 91
176.6808 80
176.7641 112
176.8475 163
176.9308 134
177.0142 158
177.0975 146
177.1808 129
177.2642 133
177.3475 96
177.4309 124
177.5142 79
177.5975 66
177.6809 33
177.7642 30
177.8476 18
177.9309 59
178.0142 76
178.0976 87
178.1809 76
178.2643 37
178.3476 100
178.4309 112
178.5143 62
178.5976 58
178.6810 62
178.7643 33
178.8476 57
178.9310 66
179.0143 28
179.0977 20
179.1810 35
179.2643 36
179.3477 39
179.4310 39
179.5144 41
179.5977 40
179.6810 67
179.7644 42
179.8477 47
179.9311 45
180.0144 52
180.0977 68
180.1811 53
180.2644 27
180.3478 43
180.4311 36
180.5144 46
180.5978 39
180.6811 26
180.7645 27
180.8478 9
180.9311 23
181.0145 53
181.0978 31
181.1812 27
181.2645 27
181.3478 40
181.4312 44
181.5145 37
181.5979 51
181.6812 40
181.7645 30
181.8479 25
181.9312 18
182.0146 16
182.0979 10
182.1812 1
182.2646 13
182.3479 16
182.4313 23
182.5146 13
182.5979 15
182.6813 59
182.7646 32
182.8480 30
182.9313 58
183.0146 47
183.0980 88
183.1813 28
183.2647 21
183.3480 48
183.4313 22
183.5147 36
183.5980 28
183.6814 19
183.7647 11
183.8480 33
183.9314 22
184.0147 42
184.0981 20
184.1814 26
184.2647 25
184.3481 37
184.4314 35
184.5148 46
184.5981 25
184.6814 32
184.7648 32
184.8481 37
184.9315 48
185.0148 80
185.0981 24
185.1815 34
185.2648 31
185.3482 81
185.4315 41
185.5148 32
185.5982 35
185.6815 39
185.7649 25
185.8482 30
185.9315 34
186.0149 25
186.0982 27
186.1816 10
186.2649 34
186.3482 45
186.4316 51
186.5149 77
186.5983 53
186.6816 72
186.7649 70
186.8483 95
186.9316 96
187.0150 96
187.0983 58
187.1816 61
187.2650 39
187.3483 15
187.4317 23
187.5150 17
187.5983 27
187.6817 33
187.7650 32
187.8484 39
187.9317 59
188.0150 81
188.0984 99
188.1817 96
188.2651 92
188.3484 122
188.4317 108
188.5151 64
188.5984 96
188.6818 93
188.7651 48
188.8484 19
188.9318 19
189.0151 18
189.0985 39
189.1818 43
189.2651 45
189.3485 71
189.4318 102
189.5152 121
189.5985 107
189.6818 115
189.7652 88
189.8485 135
189.9319 95
190.0152 66
190.0985 55
190.1819 63
190.2652 34
190.3486 24
190.4319 34
190.5152 25
190.5986 41
190.6819 65
190.7653 88
190.8486 93
190.9319 102
191.0153 155
191.0986 106
191.1820 118
191.2653 141
191.3486 113
191.4320 106
191.5153 80
191.5987 60
191.6820 50
191.7653 37
191.8487 40
191.9320 47
192.0154 50
192.0987 49
192.1820 109
192.2654 77
192.3487 101
192.4321 170
192.5154 105
192.5987 123
192.6821 98
192.7654 123
192.8488 127
192.9321 77
193.0154 60
193.0988 68
193.1821 53
193.2655 62
193.3488 64
193.4321 45
193.5155 62
193.5988 65
193.6822 69
193.7655 96
193.8488 77
193.9322 104
194.0155 93
194.0989 121
194.1822 111
194.2655 86
194.3489 69
194.4322 73
194.5156 72
194.5989 54
194.6822 42
194.7656 34
194.8489 50
194.9323 55
195.0156 29
195.0989 55
195.1823 77
195.2656 92
195.3490 99
195.4323 77
195.5156 80
195.5990 119
195.6823 57
195.7657 46
195.8490 39
195.9323 41
196.0157 50
196.0990 21
196.1824 31
196.2657 17
196.3490 37
196.4324 40
196.5157 30
196.5991 72
196.6824 47
196.7657 40
196.8491 52
196.9324 61
197.0158 48
197.0991 28
197.1824 50
197.2658 33
197.3491 24
197.4325 27
197.5158 24
197.5991 24
197.6825 38
197.7658 26
197.8492 31
197.9325 46
198.0158 58
198.0992 41
198.1825 46
198.2659 10
198.3492 41
198.4325 15
198.5159 15
198.5992 29
198.6826 18
198.7659 30
198.8492 6
198.9326 12
199.0159 20
199.0993 14
199.1826 30
199.2659 9
199.3493 37
199.4326 27
199.5160 16
199.5993 7
199.6826 36
199.7660 23
199.8493 21
199.9327 2
200.0160 11
200.0993 27
200.1827 44
200.2660 8
200.3494 34
200.4327 30
200.5160 29
200.5994 30
200.6827 39
200.7661 19
200.8494 32
200.9327 41
201.0161 61
201.0994 49
201.1828 52
201.2661 36
201.3494 58
201.4328 50
201.5161 19
201.5995 13
201.6828 24
201.7661 36
201.8495 26
201.9328 17
202.0162 30
202.0995 39
202.1828 31
202.2662 64
202.3495 72
202.4329 65
202.5162 98
202.5995 90
202.6829 69
202.7662 64
202.8496 47
202.9329 62
203.0162 37
203.0996 16
203.1829 26
203.2663 31
203.3496 24
203.4329 26
203.5163 54
203.5996 65
203.6830 77
203.7663 106
203.8496 128
203.9330 122
204.0163 122
204.0997 112
204.1830 127
204.2663 76
204.3497 67
204.4330 45
204.5164 26
204.5997 23
204.6830 13
204.7664 43
204.8497 45
204.9331 61
205.0164 110
205.0997 126
205.1831 149
205.2664 160
205.3498 228
205.4331 190
205.5164 176
205.5998 161
205.6831 100
205.7665 112
205.8498 71
205.9331 92
206.0165 65
206.0998 42
206.1832 51
206.2665 63
206.3498 101
206.4332 119
206.5165 170
206.5999 269
206.6832 261
206.7665 270
206.8499 335
206.9332 244
207.0166 240
207.0999 232
207.1832 168
207.2666 165
207.3499 134
207.4333 114
207.5166 81
207.5999 81
207.6833 117
207.7666 103
207.8500 152
207.9333 211
208.0166 243
208.1000 254
208.1833 312
208.2667 342
208.3500 346
208.4333 281
208.5167 250
208.6000 197
208.6834 161
208.7667 151
208.8500 127
208.9334 73
209.0167 72
209.1001 83
209.1834 125
209.2667 184
209.3501 215
209.4334 253
209.5168 313
209.6001 326
209.6834 403
209.7668 335
209.8501 361
209.9335 320
210.0168 285
210.1001 184
210.1835 173
210.2668 119
210.3502 80
210.4335 67
210.5168 77
210.6002 102
210.6835 183
210.7669 211
210.8502 307
210.9335 317
211.0169 315
211.1002 315
211.1836 276
211.2669 289
211.3502 255
211.4336 213
211.5169 151
211.6003 180
211.6836 97
211.7669 77
211.8503 70
211.9336 115
212.0170 123
212.1003 130
212.1836 185
212.2670 243
212.3503 264
212.4337 243
212.5170 289
212.6003 246
212.6837 268
212.7670 233
212.8504 122
212.9337 133
213.0170 105
213.1004 84
213.1837 68
213.2671 83
213.3504 84
213.4337 127
213.5171 142
213.6004 166
213.6838 211
213.7671 196
213.8504 138
213.9338 181
214.0171 175
214.1005 109
214.1838 136
214.2671 107
214.3505 86
214.4338 87
214.5172 64
214.6005 92
214.6838 71
214.7672 99
214.8505 76
214.9339 86
215.0172 90
215.1005 71
215.1839 87
215.2672 94
215.3506 108
215.4339 82
215.5172 51
215.6006 66
215.6839 76
215.7673 43
215.8506 68
215.9339 56
216.0173 54
216.1006 55
216.1840 45
216.2673 49
216.3506 70
216.4340 23
216.5173 21
216.6007 30
216.6840 32
216.7673 24
216.8507 32
216.9340 24
217.0174 25
217.1007 47
217.1840 57
217.2674 36
217.3507 46
217.4341 34
217.5174 32
217.6007 17
217.6841 31
217.7674 17
217.8508 32
217.9341 32
218.0174 32
218.1008 58
218.1841 36
218.2675 44
218.3508 48
218.4341 48
218.5175 47
218.6008 44
218.6842 26
218.7675 21
218.8508 8
218.9342 21
219.0175 25
219.1009 19
219.1842 42
219.2675 50
219.3509 58
219.4342 80
219.5176 124
219.6009 109
219.6842 136
219.7676 121
219.8509 78
219.9343 62
220.0176 64
220.1009 35
220.1843 24
220.2676 19
220.3510 10
220.4343 48
220.5176 78
220.6010 76
220.6843 134
220.7677 112
220.8510 148
220.9343 217
221.0177 179
221.1010 174
221.1844 181
221.2677 124
221.3510 132
221.4344 124
221.5177 80
221.6011 44
221.6844 25
221.7677 47
221.8511 92
221.9344 73
222.0178 172
222.1011 203
222.1844 247
222.2678 340
222.3511 330
222.4345 304
222.5178 340
222.6011 299
222.6845 210
222.7678 193
222.8512 149
222.9345 117
223.0178 113
223.1012 75
223.1845 59
223.2679 112
223.3512 159
223.4345 208
223.5179 306
223.6012 368
223.6846 395
223.7679 469
223.8512 458
223.9346 420
224.0179 401
224.1013 308
224.1846 247
224.2679 176
224.3513 162
224.4346 116
224.5180 129
224.6013 85
224.6846 160
224.7680 278
224.8513 271
224.9347 365
225.0180 471
225.1013 438
225.1847 535
225.2680 618
225.3514 499
225.4347 586
225.5180 409
225.6014 353
225.6847 272
225.7681 207
225.8514 205
225.9347 116
226.0181 129
226.1014 173
226.1848 227
226.2681 279
226.3514 364
226.4348 462
226.5181 510
226.6015 598
226.6848 668
226.7681 625
226.8515 556
226.9348 472
227.0182 429
227.1015 321
227.1848 238
227.2682 190
227.3515 119
227.4349 128
227.5182 147
227.6015 186
227.6849 246
227.7682 310
227.8516 369
227.9349 554
228.0182 556
228.1016 532
228.1849 471
228.2683 429
228.3516 400
228.4349 328
228.5183 229
228.6016 188
228.6850 134
228.7683 89
228.8516 96
228.9350 113
229.0183 166
229.1017 201
229.1850 282
229.2683 263
229.3517 374
229.4350 428
229.5184 404
229.6017 348
229.6850 300
229.7684 314
229.8517 227
229.9351 164
230.0184 129
230.1017 78
230.1851 75
230.2684 91
230.3518 100
230.4351 138
230.5184 187
230.6018 236
230.6851 233
230.7685 253
230.8518 273
230.9351 199
231.0185 193
231.1018 239
231.1852 187
231.2685 136
231.3518 112
231.4352 106
231.5185 71
231.6019 75
231.6852 82
231.7685 99
231.8519 117
231.9352 93
232.0186 120
232.1019 105
232.1852 151
232.2686 108
232.3519 96
232.4353 80
232.5186 83
232.6019 92
232.6853 93
232.7686 44
232.8520 98
232.9353 83
233.0186 72
233.1020 69
233.1853 64
233.2687 46
233.3520 40
233.4353 46
233.5187 30
233.6020 33
233.6854 40
233.7687 43
233.8520 71
233.9354 48
234.0187 63
234.1021 81
234.1854 71
234.2687 77
234.3521 44
234.4354 47
234.5188 38
234.6021 44
234.6854 41
234.7688 26
234.8521 39
234.9355 43
235.0188 31
235.1021 45
235.1855 65
235.2688 43
235.3522 59
235.4355 33
235.5188 67
235.6022 49
235.6855 47
235.7689 49
235.8522 48
235.9355 52
236.0189 49
236.1022 58
236.1856 71
236.2689 123
236.3522 130
236.4356 133
236.5189 154
236.6023 146
236.6856 138
236.7689 129
236.8523 109
236.9356 65
237.0190 65
237.1023 73
237.1856 28
237.2690 33
237.3523 95
237.4357 85
237.5190 121
237.6023 142
237.6857 253
237.7690 243
237.8524 316
237.9357 326
238.0190 317
238.1024 276
238.1857 240
238.2691 237
238.3524 135
238.4357 129
238.5191 95
238.6024 74
238.6858 61
238.7691 66
238.8524 142
238.9358 226
239.0191 279
239.1025 335
239.1858 453
239.2691 536
239.3525 576
239.4358 514
239.5192 583
239.6025 519
239.6858 439
239.7692 294
239.8525 286
239.9359 173
240.0192 121
240.1025 106
240.1859 103
240.2692 207
240.3526 274
240.4359 444
240.5192 485
240.6026 675
240.6859 743
240.7693 745
240.8526 854
240.9359 873
241.0193 750
241.1026 657
241.1860 458
241.2693 345
241.3526 254
241.4360 158
241.5193 115
241.6027 199
241.6860 228
241.7693 314
241.8527 468
241.9360 652
242.0194 850
242.1027 1018
242.1860 1087
242.2694 1051
242.3527 952
242.4361 769
242.5194 704
242.6027 529
242.6861 334
242.7694 223
242.8528 98
242.9361 166
243.0194 204
243.1028 274
243.1861 459
243.2695 649
243.3528 772
243.4361 984
243.5195 1060
243.6028 1065
243.6862 984
243.7695 885
243.8528 807
243.9362 560
244.0195 431
244.1029 267
244.1862 181
244.2695 172
244.3529 172
244.4362 252
244.5196 346
244.6029 562
244.6862 656
244.7696 801
244.8529 908
244.9363 1012
245.0196 974
245.1029 909
245.1863 793
245.2696 727
245.3530 514
245.4363 402
245.5196 273
245.6030 203
245.6863 153
245.7697 276
245.8530 282
245.9363 465
246.0197 545
246.1030 689
246.1864 790
246.2697 923
246.3530 841
246.4364 869
246.5197 801
246.6031 697
246.6864 640
246.7697 437
246.8531 385
246.9364 335
247.0198 281
247.1031 225
247.1864 211
247.2698 283
247.3531 373
247.4365 461
247.5198 516
247.6031 579
247.6865 630
247.7698 645
247.8532 706
247.9365 668
248.0198 632
248.1032 581
248.1865 400
248.2699 358
248.3532 294
248.4365 231
248.5199 180
248.6032 161
248.6866 209
248.7699 269
248.8532 321
248.9366 317
249.0199 361
249.1033 367
249.1866 425
249.2699 491
249.3533 424
249.4366 355
249.5200 344
249.6033 276
249.6866 247
249.7700 240
249.8533 160
249.9367 112
250.0200 151
250.1033 106
250.1867 122
250.2700 163
250.3534 167
250.4367 169
250.5200 184
250.6034 177
250.6867 198
250.7701 190
250.8534 153
250.9367 161
251.0201 138
251.1034 135
251.1868 130
251.2701 78
251.3534 74
251.4368 91
251.5201 42
251.6035 50
251.6868 32
251.7701 38
251.8535 21
251.9368 32
252.0202 38
252.1035 43
252.1868 38
252.2702 61
252.3535 57
252.4369 51
252.5202 69
252.6035 56
252.6869 63
252.7702 47
252.8536 46
252.9369 27
253.0202 45
253.1036 50
253.1869 85
253.2703 118
253.3536 136
253.4369 155
253.5203 168
253.6036 257
253.6870 182
253.7703 188
253.8536 166
253.9370 131
254.0203 117
254.1037 40
254.1870 39
254.2703 58
254.3537 120
254.4370 240
254.5204 289
254.6037 350
254.6870 467
254.7704 568
254.8537 683
254.9371 737
255.0204 711
255.1037 600
255.1871 582
255.2704 394
255.3538 298
255.4371 203
255.5204 126
255.6038 75
255.6871 126
255.7705 187
255.8538 414
255.9371 574
256.0205 873
256.1038 1097
256.1872 1283
256.2705 1399
256.3538 818
256.4372 872
256.5205 608
256.6039 503
256.6872 449
256.7705 206
256.8539 128
256.9372 72
257.0206 79
257.1039 154
257.1872 204
257.2706 465
257.3539 693
257.4373 980
257.5206 1126
257.6039 1367
257.6873 1409
257.7706 1497
257.8540 1394
257.9373 1127
258.0206 964
258.1040 626
258.1873 394
258.2707 233
258.3540 118
258.4373 112
258.5207 217
258.6040 397
258.6874 739
258.7707 1147
258.8540 1514
258.9374 1694
259.0207 1801
259.1041 2046
259.1874 1990
259.2707 1942
259.3541 1579
259.4374 1266
259.5208 941
259.6041 633
259.6874 365
259.7708 208
259.8541 177
259.9375 342
260.0208 565
260.1041 952
260.1875 1290
260.2708 1762
260.3542 2106
260.4375 2307
260.5208 2382
260.6042 2404
260.6875 2212
260.7709 1925
260.8542 1441
260.9375 1056
261.0209 768
261.1042 456
261.1876 282
261.2709 282
261.3542 388
261.4376 574
261.5209 944
261.6043 1342
261.6876 1733
261.7709 2024
261.8543 2217
261.9376 2393
262.0210 2215
262.1043 2008
262.1876 1809
262.2710 1526
262.3543 1060
262.4377 751
262.5210 494
262.6043 315
262.6877 368
262.7710 445
262.8544 631
262.9377 850
263.0210 1114
263.1044 1473
263.1877 1663
263.2711 1807
263.3544 1913
263.4377 1937
263.5211 1756
263.6044 1507
263.6878 1140
263.7711 983
263.8544 726
263.9378 539
264.0211 380
264.1045 342
264.1878 401
264.2711 500
264.3545 607
264.4378 879
264.5212 1008
264.6045 1163
264.6878 1254
264.7712 1328
264.8545 1335
264.9379 1233
265.0212 1136
265.1045 905
265.1879 755
265.2712 652
265.3546 506
265.4379 375
265.5212 393
265.6046 339
265.6879 425
265.7713 422
265.8546 555
265.9379 665
266.0213 698
266.1046 723
266.1880 838
266.2713 706
266.3546 794
266.4380 713
266.5213 583
266.6047 611
266.6880 552
266.7713 477
266.8547 383
266.9380 292
267.0214 292
267.1047 227
267.1880 195
267.2714 225
267.3547 252
267.4381 244
267.5214 289
267.6047 303
267.6881 332
267.7714 364
267.8548 318
267.9381 402
268.0214 367
268.1048 418
268.1881 339
268.2715 301
268.3548 300
268.4381 221
268.5215 139
268.6048 139
268.6882 71
268.7715 38
268.8548 15
268.9382 44
269.0215 46
269.1049 72
269.1882 94
269.2715 125
269.3549 193
269.4382 269
269.5216 253
269.6049 237
269.6882 208
269.7716 212
269.8549 230
269.9383 212
270.0216 207
270.1049 216
270.1883 193
270.2716 243
270.3550 276
270.4383 259
270.5216 325
270.6050 289
270.6883 232
270.7717 210
270.8550 197
270.9383 190
271.0217 195
271.1050 190
271.1884 251
271.2717 325
271.3550 492
271.4384 645
271.5217 753
271.6051 858
271.6884 1010
271.7717 1069
271.8551 1208
271.9384 1078
272.0218 942
272.1051 807
272.1884 619
272.2718 388
272.3551 219
272.4385 202
272.5218 241
272.6051 323
272.6885 644
272.7718 983
272.8552 1386
272.9385 1780
273.0218 2022
273.1052 2570
273.1885 2604
273.2719 2653
273.3552 2390
273.4385 2082
273.5219 1658
273.6052 1195
273.6886 785
273.7719 509
273.8552 338
273.9386 324
274.0219 587
274.1053 1059
274.1886 1620
274.2719 2588
274.3553 3074
274.4386 3613
274.5220 4250
274.6053 4430
274.6886 4543
274.7720 4007
274.8553 3622
274.9387 2979
275.0220 2078
275.1053 1505
275.1887 944
275.2720 578
275.3554 527
275.4387 870
275.5220 1522
275.6054 2312
275.6887 3255
275.7721 4238
275.8554 5143
275.9387 5810
276.0221 6156
276.1054 6088
276.1888 5736
276.2721 5136
276.3554 4170
276.4388 3143
276.5221 2229
276.6055 1554
276.6888 978
276.7721 934
276.8555 1230
276.9388 1876
277.0222 2992
277.1055 3991
277.1888 5173
277.2722 6205
277.3555 7130
277.4389 7410
277.5222 7371
277.6055 6584
277.6889 6074
277.7722 5061
277.8556 3931
277.9389 2730
278.0222 1786
278.1056 1273
278.1889 1282
278.2723 1520
278.3556 2219
278.4389 2955
278.5223 4279
278.6056 5375
278.6890 6386
278.7723 7168
278.8556 7438
278.9390 7462
279.0223 7101
279.1057 6236
279.1890 5181
279.2723 4075
279.3557 3034
279.4390 2193
279.5224 1785
279.6057 1547
279.6890 1608
279.7724 2191
279.8557 2937
279.9391 3981
280.0224 4987
280.1057 5738
280.1891 6490
280.2724 6870
280.3558 6572
280.4391 6392
280.5224 5663
280.6058 4935
280.6891 3980
280.7725 3177
280.8558 2410
280.9391 2033
281.0225 1714
281.1058 1894
281.1892 2161
281.2725 2569
281.3558 3264
281.4392 3848
281.5225 4442
281.6059 4915
281.6892 4999
281.7725 4920
281.8559 4848
281.9392 4307
282.0226 3734
282.1059 3201
282.1892 2676
282.2726 2270
282.3559 1897
282.4393 1706
282.5226 1796
282.6059 1750
282.6893 1943
282.7726 2332
282.8560 2261
282.9393 2661
283.0226 2943
283.1060 2817
283.1893 2797
283.2727 2955
283.3560 2568
283.4393 2584
283.5227 2107
283.6060 1973
283.6894 1887
283.7727 1753
283.8560 1704
283.9394 1504
284.0227 1472
284.1061 1450
284.1894 1217
284.2727 1115
284.3561 1045
284.4394 1066
284.5228 1023
284.6061 987
284.6894 1096
284.7728 1069
284.8561 1249
284.9395 1305
285.0228 1310
285.1061 1560
285.1895 1496
285.2728 1430
285.3562 1201
285.4395 1146
285.5228 908
285.6062 689
285.6895 500
285.7729 326
285.8562 164
285.9395 145
286.0229 155
286.1062 209
286.1896 269
286.2729 418
286.3562 569
286.4396 713
286.5229 872
286.6063 969
286.6896 964
286.7729 1119
286.8563 1196
286.9396 1246
287.0230 1571
287.1063 1686
287.1896 1691
287.2730 1656
287.3563 1428
287.4397 1209
287.5230 1021
287.6063 777
287.6897 536
287.7730 457
287.8564 347
287.9397 514
288.0230 728
288.1064 1171
288.1897 1650
288.2731 2669
288.3564 3388
288.4397 4311
288.5231 5144
288.6064 5652
288.6898 6125
288.7731 5719
288.8564 5466
288.9398 4645
289.0231 3445
289.1065 2481
289.1898 1404
289.2731 635
289.3565 335
289.4398 589
289.5232 1412
289.6065 2900
289.6898 4963
289.7732 7455
289.8565 9734
289.9399 11866
290.0232 13110
290.1065 13981
290.1899 14090
290.2732 13048
290.3566 10766
290.4399 8726
290.5232 5950
290.6066 3555
290.6899 1581
290.7733 622
290.8566 895
290.9399 2447
291.0233 5389
291.1066 9317
291.1900 14073
291.2733 18095
291.3566 22053
291.4400 25119
291.5233 27385
291.6067 26689
291.6900 24773
291.7733 21506
291.8567 16772
291.9400 12049
292.0234 7266
292.1067 3573
292.1900 1549
292.2734 1610
292.3567 3787
292.4401 8176
292.5234 14734
292.6067 22280
292.6901 30057
292.7734 36397
292.8568 41091
292.9401 44058
293.0234 43507
293.1068 40203
293.1901 34824
293.2735 27213
293.3568 18609
293.4401 11492
293.5235 5693
293.6068 2769
293.6902 2943
293.7735 6341
293.8568 13170
293.9402 22271
294.0235 34399
294.1069 44856
294.1902 55268
294.2735 61885
294.3569 64811
294.4402 62955
294.5236 58502
294.6069 48916
294.6902 37367
294.7736 27084
294.8569 16343
294.9403 8712
295.0236 4491
295.1069 4827
295.1903 9687
295.2736 19455
295.3570 32576
295.4403 48880
295.5236 63698
295.6070 77819
295.6903 86907
295.7737 92075
295.8570 88983
295.9403 81182
296.0237 66719
296.1070 52368
296.1904 35603
296.2737 22302
296.3570 12257
296.4404 7093
296.5237 7716
296.6071 14450
296.6904 27295
296.7737 44178
296.8571 65379
296.9404 86103
297.0238 103285
297.1071 114012
297.1904 119791
297.2738 115987
297.3571 103936
297.4405 86276
297.5238 65755
297.6071 45905
297.6905 27991
297.7738 16409
297.8572 10014
297.9405 11647
298.0238 20990
298.1072 37613
298.1905 59934
298.2739 84460
298.3572 110138
298.4405 128215
298.5239 141451
298.6072 143767
298.6906 137556
298.7739 122975
298.8572 100912
298.9406 76060
299.0239 52418
299.1073 32602
299.1906 19105
299.2739 13680
299.3573 16407
299.4406 28054
299.5240 48733
299.6073 75828
299.6906 106075
299.7740 135229
299.8573 155629
299.9407 167184
300.0240 169680
300.1073 154669
300.1907 138004
300.2740 111784
300.3574 83480
300.4407 57497
300.5240 36705
300.6074 22205
300.6907 17298
300.7741 21608
300.8574 36585
300.9407 59868
301.0241 91121
301.1074 123193
301.1908 154155
301.2741 175387
301.3574 186869
301.4408 185320
301.5241 168381
301.6075 145730
301.6908 117049
301.7741 87348
301.8575 59237
301.9408 37381
302.0242 24197
302.1075 20593
302.1908 28200
302.2742 45443
302.3575 72774
302.4409 105799
302.5242 139760
302.6075 169251
302.6909 189073
302.7742 196244
302.8576 192549
302.9409 176033
303.0242 148233
303.1076 117396
303.1909 86674
303.2743 58683
303.3576 37357
303.4409 25105
303.5243 23463
303.6076 32166
303.6910 50644
303.7743 79064
303.8576 113217
303.9410 146320
304.0243 175913
304.1077 195366
304.1910 201724
304.2743 194258
304.3577 175542
304.4410 148456
304.5244 117375
304.6077 85129
304.6910 57866
304.7744 37268
304.8577 26128
304.9411 24161
305.0244 33668
305.1077 53174
305.1911 82120
305.2744 114975
305.3578 148017
305.4411 173461
305.5244 189030
305.6078 195219
305.6911 184882
305.7745 165613
305.8578 137098
305.9411 105360
306.0245 75209
306.1078 50742
306.1912 32956
306.2745 23996
306.3578 25141
306.4412 35876
306.5245 55765
306.6079 80339
306.6912 112242
306.7745 141958
306.8579 166740
306.9412 177543
307.0246 180189
307.1079 168484
307.1912 149321
307.2746 123993
307.3579 94847
307.4413 68606
307.5246 46085
307.6079 30579
307.6913 22608
307.7746 23373
307.8580 33150
307.9413 51249
308.0246 74764
308.1080 100729
308.1913 129226
308.2747 148117
308.3580 157695
308.4413 155599
308.5247 147965
308.6080 131964
308.6914 109164
308.7747 84319
308.8580 59546
308.9414 40667
309.0247 27206
309.1081 20037
309.1914 21022
309.2747 29591
309.3581 44876
309.4414 63926
309.5248 85806
309.6081 108288
309.6914 123027
309.7748 131982
309.8581 132406
309.9415 123277
310.0248 109145
310.1081 89802
310.1915 69935
310.2748 50495
310.3582 33830
310.4415 22451
310.5248 17119
310.6082 18334
310.6915 25546
310.7749 37363
310.8582 52150
310.9415 68801
311.0249 84045
311.1082 96862
311.1916 103037
311.2749 101630
311.3582 94769
311.4416 85006
311.5249 70281
311.6083 54521
311.6916 39573
311.7749 27924
311.8583 19194
311.9416 14861
312.0250 14905
312.1083 19623
312.1916 28052
312.2750 38335
312.3583 50063
312.4417 59894
312.5250 68746
312.6083 73249
312.6917 72651
312.7750 68958
312.8584 62438
312.9417 51835
313.0250 41135
313.1084 30508
313.1917 21577
313.2751 15149
313.3584 11344
313.4417 11365
313.5251 13765
313.6084 19047
313.6918 25620
313.7751 32496
313.8584 39509
313.9418 44057
314.0251 47245
314.1085 46948
314.1918 44065
314.2751 39502
314.3585 33609
314.4418 27191
314.5252 20671
314.6085 14859
314.6918 10802
314.7752 8722
314.8585 8222
314.9419 9779
315.0252 12369
315.1085 15289
315.1919 19005
315.2752 22089
315.3586 24749
315.4419 26036
315.5252 26376
315.6086 24785
315.6919 22464
315.7753 19868
315.8586 15873
315.9419 12782
316.0253 9731
316.1086 7409
316.1920 6033
316.2753 5509
316.3586 5772
316.4420 6517
316.5253 7823
316.6087 8860
316.6920 10189
316.7753 10694
316.8587 11451
316.9420 11702
317.0254 11326
317.1087 10021
317.1920 9103
317.2754 6898
317.3587 4509
317.4421 4207
317.5254 3678
317.6087 3327
317.6921 3152
317.7754 2677
317.8588 2782
317.9421 2518
318.0254 2427
318.1088 2167
318.1921 2251
318.2755 2030
318.3588 1976
318.4421 1867
318.5255 1862
318.6088 1879
318.6922 1894
318.7755 1963
318.8588 1779
318.9422 1953
319.0255 1948
319.1089 1632
319.1922 1505
319.2755 1361
319.3589 978
319.4422 760
319.5256 528
319.6089 314
319.6922 184
319.7756 160
319.8589 166
319.9423 199
320.0256 381
320.1089 528
320.1923 624
320.2756 778
320.3590 965
320.4423 904
320.5256 977
320.6090 945
320.6923 907
320.7757 745
320.8590 698
320.9423 602
321.0257 542
321.1090 485
321.1924 401
321.2757 387
321.3590 338
321.4424 353
321.5257 338
321.6091 300
321.6924 347
321.7757 352
321.8591 483
321.9424 624
322.0258 811
322.1091 1071
322.1924 1329
322.2758 1374
322.3591 1622
322.4425 1719
322.5258 1818
322.6091 1693
322.6925 1556
322.7758 1312
322.8592 1106
322.9425 763
323.0258 499
323.1092 300
323.1925 263
323.2759 375
323.3592 601
323.4425 1053
323.5259 1632
323.6092 2238
323.6926 2869
323.7759 3212
323.8592 3581
323.9426 3744
324.0259 3483
324.1093 3135
324.1926 2768
324.2759 2238
324.3593 1488
324.4426 931
324.5260 479
324.6093 294
324.6926 355
324.7760 765
324.8593 1356
324.9427 2154
325.0260 2930
325.1093 3780
325.1927 4797
325.2760 5104
325.3594 5283
325.4427 5323
325.5260 4782
325.6094 4162
325.6927 3071
325.7761 2297
325.8594 1373
325.9427 761
326.0261 489
326.1094 483
326.1928 850
326.2761 1631
326.3594 2634
326.4428 3636
326.5261 4645
326.6095 5623
326.6928 6481
326.7761 6488
326.8595 6141
326.9428 5884
327.0262 5000
327.1095 4066
327.1928 3062
327.2762 1896
327.3595 1178
327.4429 711
327.5262 736
327.6095 943
327.6929 1558
327.7762 2639
327.8596 3573
327.9429 4872
328.0262 5853
328.1096 6680
328.1929 6893
328.2763 6897
328.3596 6364
328.4429 5414
328.5263 4530
328.6096 3436
328.6930 2327
328.7763 1487
328.8596 961
328.9430 865
329.0263 1040
329.1097 1683
329.1930 2510
329.2763 3479
329.3597 4439
329.4430 5389
329.5264 6073
329.6097 6445
329.6930 6468
329.7764 5935
329.8597 5136
329.9431 4356
330.0264 3314
330.1097 2507
330.1931 1693
330.2764 1159
330.3598 1053
330.4431 1152
330.5264 1528
330.6098 2247
330.6931 2976
330.7765 3746
330.8598 4195
330.9431 4854
331.0265 4993
331.1098 5179
331.1932 4620
331.2765 4146
331.3598 3595
331.4432 2727
331.5265 2175
331.6099 1653
331.6932 1196
331.7765 1053
331.8599 1071
331.9432 1366
332.0266 1683
332.1099 2275
332.1932 2628
332.2766 2941
332.3599 3395
332.4433 3650
332.5266 3534
332.6099 3078
332.6933 2711
332.7766 2428
332.8600 1906
332.9433 1715
333.0266 1226
333.1100 998
333.1933 943
333.2767 969
333.3600 1053
333.4433 1134
333.5267 1316
333.6100 1543
333.6934 1571
333.7767 1702
333.8600 1759
333.9434 1711
334.0267 1569
334.1101 1461
334.1934 1351
334.2767 1078
334.3601 969
334.4434 835
334.5268 675
334.6101 673
334.6934 646
334.7768 617
334.8601 635
334.9435 695
335.0268 613
335.1101 623
335.1935 588
335.2768 547
335.3602 508
335.4435 570
335.5268 483
335.6102 500
335.6935 467
335.7769 450
335.8602 477
335.9435 372
336.0269 406
336.1102 387
336.1936 380
336.2769 345
336.3602 294
336.4436 166
336.5269 132
336.6103 133
336.6936 92
336.7769 82
336.8603 83
336.9436 80
337.0270 118
337.1103 120
337.1936 140
337.2770 171
337.3603 201
337.4437 204
337.5270 210
337.6103 230
337.6937 214
337.7770 212
337.8604 192
337.9437 149
338.0270 181
338.1104 166
338.1937 134
338.2771 127
338.3604 117
338.4437 87
338.5271 84
338.6104 72
338.6938 61
338.7771 81
338.8604 99
338.9438 143
339.0271 239
339.1105 323
339.1938 360
339.2771 417
339.3605 469
339.4438 569
339.5272 607
339.6105 531
339.6938 516
339.7772 418
339.8605 359
339.9439 257
340.0272 141
340.1105 48
340.1939 62
340.2772 127
340.3606 207
340.4439 345
340.5272 548
340.6106 719
340.6939 962
340.7773 1073
340.8606 1140
340.9439 1196
341.0273 1073
341.1106 997
341.1940 821
341.2773 641
341.3606 419
341.4440 313
341.5273 192
341.6107 151
341.6940 223
341.7773 349
341.8607 595
341.9440 910
342.0274 1221
342.1107 1495
342.1940 1651
342.2774 1899
342.3607 1785
342.4441 1744
342.5274 1551
342.6107 1331
342.6941 1006
342.7774 740
342.8608 459
342.9441 331
343.0274 245
343.1108 362
343.1941 585
343.2775 905
343.3608 1222
343.4441 1626
343.5275 2028
343.6108 2372
343.6942 2406
343.7775 2469
343.8608 2189
343.9442 2044
344.0275 1667
344.1109 1282
344.1942 864
344.2775 619
344.3609 508
344.4442 447
344.5276 557
344.6109 850
344.6942 1059
344.7776 1589
344.8609 1929
344.9443 2226
345.0276 2454
345.1109 2639
345.1943 2693
345.2776 2543
345.3610 2182
345.4443 1873
345.5276 1317
345.6110 1072
345.6943 719
345.7777 537
345.8610 504
345.9443 702
346.0277 846
346.1110 1172
346.1944 1605
346.2777 1989
346.3610 2277
346.4444 2554
346.5277 2651
346.6111 2464
346.6944 2396
346.7777 2050
346.8611 1748
346.9444 1341
347.0278 1007
347.1111 766
347.1944 567
347.2778 643
347.3611 649
347.4445 800
347.5278 1184
347.6111 1349
347.6945 1682
347.7778 2125
347.8612 2036
347.9445 2232
348.0278 2150
348.1112 1937
348.1945 1605
348.2779 1299
348.3612 1052
348.4445 790
348.5279 628
348.6112 482
348.6946 472
348.7779 568
348.8612 669
348.9446 817
349.0279 894
349.1113 1105
349.1946 1270
349.2779 1382
349.3613 1348
349.4446 1261
349.5280 1156
349.6113 1033
349.6946 912
349.7780 706
349.8613 595
349.9447 438
350.0280 393
350.1113 395
350.1947 400
350.2780 423
350.3614 472
350.4447 602
350.5280 653
350.6114 629
350.6947 688
350.7781 668
350.8614 738
350.9447 647
351.0281 505
351.1114 490
351.1948 428
351.2781 353
351.3614 323
351.4448 308
351.5281 319
351.6115 346
351.6948 298
351.7781 287
351.8615 281
351.9448 311
352.0282 353
352.1115 312
352.1948 333
352.2782 309
352.3615 290
352.4449 235
352.5282 287
352.6115 252
352.6949 196
352.7782 250
352.8616 235
352.9449 227
353.0282 233
353.1116 158
353.1949 198
353.2783 184
353.3616 153
353.4449 141
353.5283 150
353.6116 111
353.6950 83
353.7783 95
353.8616 80
353.9450 85
354.0283 111
354.1117 99
354.1950 88
354.2783 137
354.3617 123
354.4450 87
354.5284 144
354.6117 106
354.6950 72
354.7784 73
354.8617 67
354.9451 57
355.0284 38
355.1117 36
355.1951 33
355.2784 30
355.3618 53
355.4451 32
355.5284 26
355.6118 85
355.6951 69
355.7785 63
355.8618 81
355.9451 119
356.0285 159
356.1118 182
356.1952 145
356.2785 227
356.3618 223
356.4452 182
356.5285 174
356.6119 133
356.6952 134
356.7785 101
356.8619 82
356.9452 53
357.0286 41
357.1119 76
357.1952 115
357.2786 136
357.3619 259
357.4453 361
357.5286 485
357.6119 583
357.6953 611
357.7786 687
357.8620 672
357.9453 573
358.0286 533
358.1120 423
358.1953 247
358.2787 166
358.3620 90
358.4453 72
358.5287 50
358.6120 119
358.6954 201
358.7787 379
358.8620 479
358.9454 621
359.0287 756
359.1121 844
359.1954 901
359.2787 1085
359.3621 938
359.4454 869
359.5288 686
359.6121 570
359.6954 332
359.7788 289
359.8621 166
359.9455 92
360.0288 95
360.1121 229
360.1955 292
360.2788 427
360.3622 643
360.4455 859
360.5288 1011
360.6122 1222
360.6955 1134
360.7789 1180
360.8622 1008
360.9455 979
361.0289 807
361.1122 638
361.1956 468
361.2789 349
361.3622 207
361.4456 198
361.5289 225
361.6123 376
361.6956 596
361.7789 689
361.8623 950
361.9456 1164
362.0290 1427
362.1123 1349
362.1956 1475
362.2790 1378
362.3623 1133
362.4457 990
362.5290 829
362.6123 593
362.6957 473
362.7790 298
362.8624 320
362.9457 384
363.0290 521
363.1124 684
363.1957 947
363.2791 1079
363.3624 1249
363.4457 1356
363.5291 1463
363.6124 1469
363.6958 1326
363.7791 1208
363.8624 1010
363.9458 767
364.0291 583
364.1125 447
364.1958 336
364.2791 409
364.3625 426
364.4458 639
364.5292 770
364.6125 996
364.6958 1107
364.7792 1234
364.8625 1349
364.9459 1401
365.0292 1293
365.1125 1166
365.1959 1026
365.2792 732
365.3626 666
365.4459 410
365.5292 407
365.6126 286
365.6959 310
365.7793 356
365.8626 419
365.9459 532
366.0293 682
366.1126 837
366.1960 963
366.2793 922
366.3626 854
366.4460 807
366.5293 717
366.6127 610
366.6960 506
366.7793 402
366.8627 278
366.9460 219
367.0294 217
367.1127 205
367.1960 204
367.2794 281
367.3627 344
367.4461 409
367.5294 429
367.6127 405
367.6961 494
367.7794 464
367.8628 444
367.9461 348
368.0294 298
368.1128 273
368.1961 210
368.2795 189
368.3628 155
368.4461 161
368.5295 166
368.6128 133
368.6962 216
368.7795 193
368.8628 187
368.9462 201
369.0295 178
369.1129 190
369.1962 197
369.2795 190
369.3629 147
369.4462 128
369.5296 93
369.6129 120
369.6962 72
369.7796 94
369.8629 110
369.9463 107
370.0296 129
370.1129 139
370.1963 136
370.2796 128
370.3630 142
370.4463 128
370.5296 94
370.6130 122
370.6963 62
370.7797 41
370.8630 27
370.9463 36
371.0297 52
371.1130 48
371.1964 66
371.2797 40
371.3630 71
371.4464 89
371.5297 47
371.6131 60
371.6964 83
371.7797 61
371.8631 91
371.9464 63
372.0298 56
372.1131 51
372.1964 32
372.2798 39
372.3631 52
372.4465 32
372.5298 21
372.6131 32
372.6965 40
372.7798 41
372.8632 42
372.9465 56
373.0298 74
373.1132 50
373.1965 84
373.2799 109
373.3632 86
373.4465 86
373.5299 79
373.6132 92
373.6966 76
373.7799 88
373.8632 61
373.9466 55
374.0299 86
374.1133 36
374.1966 56
374.2799 110
374.3633 92
374.4466 115
374.5300 174
374.6133 217
374.6966 200
374.7800 232
374.8633 237
374.9467 205
375.0300 213
375.1133 170
375.1967 118
375.2800 80
375.3634 64
375.4467 35
375.5300 50
375.6134 134
375.6967 113
375.7801 195
375.8634 292
375.9467 332
376.0301 399
376.1134 417
376.1968 459
376.2801 453
376.3634 407
376.4468 365
376.5301 257
376.6135 240
376.6968 194
376.7801 135
376.8635 74
376.9468 43
377.0302 78
377.1135 123
377.1968 193
377.2802 279
377.3635 377
377.4469 482
377.5302 447
377.6135 601
377.6969 574
377.7802 621
377.8636 534
377.9469 472
378.0302 413
378.1136 261
378.1969 192
378.2803 135
378.3636 89
378.4469 83
378.5303 137
378.6136 249
378.6970 351
378.7803 438
378.8636 513
378.9470 647
379.0303 718
379.1137 789
379.1970 747
379.2803 616
379.3637 617
379.4470 547
379.5304 394
379.6137 292
379.6970 174
379.7804 159
379.8637 192
379.9471 183
380.0304 284
380.1137 375
380.1971 514
380.2804 554
380.3638 660
380.4471 751
380.5304 718
380.6138 641
380.6971 676
380.7805 535
380.8638 423
380.9471 305
381.0305 249
381.1138 179
381.1972 164
381.2805 175
381.3638 205
381.4472 278
381.5305 387
381.6139 472
381.6972 493
381.7805 485
381.8639 547
381.9472 617
382.0306 559
382.1139 505
382.1972 394
382.2806 279
382.3639 221
382.4473 165
382.5306 107
382.6139 98
382.6973 99
382.7806 148
382.8640 210
382.9473 222
383.0306 241
383.1140 333
383.1973 313
383.2807 353
383.3640 413
383.4473 360
383.5307 361
383.6140 265
383.6974 256
383.7807 211
383.8640 160
383.9474 142
384.0307 97
384.1141 94
384.1974 81
384.2807 87
384.3641 166
384.4474 165
384.5308 181
384.6141 211
384.6974 264
384.7808 246
384.8641 213
384.9475 179
385.0308 218
385.1141 151
385.1975 114
385.2808 83
385.3642 113
385.4475 102
385.5308 94
385.6142 92
385.6975 134
385.7809 155
385.8642 94
385.9475 131
386.0309 97
386.1142 122
386.1976 123
386.2809 109
386.3642 78
386.4476 96
386.5309 75
386.6143 70
386.6976 72
386.7809 71
386.8643 82
386.9476 71
387.0310 79
387.1143 61
387.1976 82
387.2810 46
387.3643 46
387.4477 46
387.5310 45
387.6143 36
387.6977 41
387.7810 30
387.8644 17
387.9477 25
388.0310 38
388.1144 24
388.1977 21
388.2811 35
388.3644 44
388.4477 36
388.5311 45
388.6144 55
388.6978 66
388.7811 42
388.8644 43
388.9478 23
389.0311 18
389.1145 23
389.1978 25
389.2811 23
389.3645 12
389.4478 21
389.5312 30
389.6145 26
389.6978 41
389.7812 35
389.8645 37
389.9479 49
390.0312 65
390.1145 74
390.1979 81
390.2812 72
390.3646 82
390.4479 107
390.5312 104
390.6146 85
390.6979 56
390.7813 101
390.8646 77
390.9479 105
391.0313 30
391.1146 23
391.1980 33
391.2813 61
391.3646 47
391.4480 64
391.5313 121
391.6147 142
391.6980 157
391.7813 164
391.8647 244
391.9480 225
392.0314 229
392.1147 205
392.1980 151
392.2814 103
392.3647 99
392.4481 51
392.5314 41
392.6147 31
392.6981 41
392.7814 84
392.8648 110
392.9481 155
393.0314 207
393.1148 314
393.1981 352
393.2815 399
393.3648 376
393.4481 353
393.5315 319
393.6148 300
393.6982 214
393.7815 195
393.8648 96
393.9482 67
394.0315 40
394.1149 42
394.1982 89
394.2815 114
394.3649 193
394.4482 345
394.5316 380
394.6149 333
394.6982 324
394.7816 411
394.8649 435
394.9483 400
395.0316 316
395.1149 250
395.1983 196
395.2816 134
395.3650 83
395.4483 63
395.5316 88
395.6150 128
395.6983 151
395.7817 199
395.8650 174
395.9483 324
396.0317 352
396.1150 382
396.1984 440
396.2817 487
396.3650 453
396.4484 395
396.5317 278
396.6151 210
396.6984 201
396.7817 116
396.8651 81
396.9484 50
397.0318 91
397.1151 105
397.1984 175
397.2818 259
397.3651 384
397.4485 386
397.5318 391
397.6151 453
397.6985 417
397.7818 406
397.8652 335
397.9485 264
398.0318 195
398.1152 141
398.1985 109
398.2819 108
398.3652 115
398.4485 93
398.5319 144
398.6152 206
398.6986 274
398.7819 284
398.8652 427
398.9486 397
399.0319 420
399.1153 423
399.1986 402
399.2819 422
399.3653 272
399.4486 169
399.5320 145
399.6153 121
399.6986 96
399.7820 52
399.8653 96
399.9487 94
400.0320 155
400.1153 245
400.1987 270
400.2820 305
400.3654 282
400.4487 299
400.5320 366
400.6154 293
400.6987 236
400.7821 192
400.8654 162
400.9487 111
401.0321 85
401.1154 44
401.1988 60
401.2821 72
401.3654 81
401.4488 120
401.5321 134
401.6155 151
401.6988 203
401.7821 214
401.8655 173
401.9488 215
402.0322 183
402.1155 176
402.1988 126
402.2822 94
402.3655 76
402.4489 72
402.5322 67
402.6155 43
402.6989 43
402.7822 82
402.8656 76
402.9489 96
403.0322 87
403.1156 119
403.1989 99
403.2823 106
403.3656 94
403.4489 98
403.5323 129
403.6156 136
403.6990 110
403.7823 58
403.8656 76
403.9490 47
404.0323 29
404.1157 43
404.1990 38
404.2823 48
404.3657 36
404.4490 85
404.5324 58
404.6157 64
404.6990 53
404.7824 33
404.8657 65
404.9491 45
405.0324 27
405.1157 36
405.1991 33
405.2824 44
405.3658 35
405.4491 75
405.5324 32
405.6158 43
405.6991 40
405.7825 46
405.8658 50
405.9491 100
406.0325 64
406.1158 24
406.1992 40
406.2825 37
406.3658 14
406.4492 36
406.5325 7
406.6159 52
406.6992 48
406.7825 22
406.8659 28
406.9492 36
407.0326 35
407.1159 37
407.1992 44
407.2826 55
407.3659 37
407.4493 24
407.5326 33
407.6159 46
407.6993 44
407.7826 55
407.8660 39
407.9493 26
408.0326 39
408.1160 27
408.1993 18
408.2827 41
408.3660 26
408.4493 37
408.5327 44
408.6160 54
408.6994 50
408.7827 76
408.8660 77
408.9494 70
409.0327 104
409.1161 73
409.1994 73
409.2827 94
409.3661 40
409.4494 64
409.5328 45
409.6161 17
409.6994 21
409.7828 36
409.8661 38
409.9495 69
410.0328 69
410.1161 120
410.1995 123
410.2828 159
410.3662 170
410.4495 181
410.5328 183
410.6162 183
410.6995 152
410.7829 149
410.8662 107
410.9495 80
411.0329 37
411.1162 35
411.1996 28
411.2829 66
411.3662 72
411.4496 96
411.5329 168
411.6163 208
411.6996 205
411.7829 252
411.8663 257
411.9496 271
412.0330 287
412.1163 219
412.1996 210
412.2830 159
412.3663 129
412.4497 110
412.5330 45
412.6163 38
412.6997 77
412.7830 81
412.8664 130
412.9497 142
413.0330 206
413.1164 211
413.1997 249
413.2831 223
413.3664 244
413.4497 246
413.5331 224
413.6164 196
413.6998 157
413.7831 118
413.8664 92
413.9498 67
414.0331 32
414.1165 47
414.1998 59
414.2831 92
414.3665 125
414.4498 142
414.5332 169
414.6165 228
414.6998 249
414.7832 238
414.8665 217
414.9499 227
415.0332 227
415.1165 164
415.1999 112
415.2832 86
415.3666 99
415.4499 50
415.5332 61
415.6166 83
415.6999 106
415.7833 114
415.8666 141
415.9499 228
416.0333 197
416.1166 260
416.2000 258
416.2833 222
416.3666 239
416.4500 208
416.5333 213
416.6167 178
416.7000 88
416.7833 90
416.8667 71
416.9500 53
417.0334 93
417.1167 99
417.2000 103
417.2834 179
417.3667 192
417.4501 222
417.5334 231
417.6167 249
417.7001 222
417.7834 208
417.8668 191
417.9501 180
418.0334 148
418.1168 86
418.2001 67
418.2835 69
418.3668 70
418.4501 102
418.5335 96
418.6168 111
418.7002 117
418.7835 118
418.8668 117
418.9502 152
419.0335 157
419.1169 162
419.2002 109
419.2835 112
419.3669 105
419.4502 82
419.5336 58
419.6169 55
419.7002 45
419.7836 52
419.8669 62
419.9503 39
420.0336 51
420.1169 48
420.2003 63
420.2836 52
420.3670 41
420.4503 61
420.5336 76
420.6170 46
420.7003 53
420.7837 40
420.8670 48
420.9503 78
421.0337 59
421.1170 40
421.2004 57
421.2837 63
421.3670 31
421.4504 45
421.5337 47
421.6171 44
421.7004 50
421.7837 40
421.8671 41
421.9504 21
422.0338 38
422.1171 24
422.2004 39
422.2838 59
422.3671 40
422.4505 41
422.5338 52
422.6171 52
422.7005 54
422.7838 59
422.8672 63
422.9505 60
423.0338 43
423.1172 36
423.2005 34
423.2839 38
423.3672 31
423.4505 21
423.5339 14
423.6172 43
423.7006 28
423.7839 27
423.8672 29
423.9506 37
424.0339 36
424.1173 62
424.2006 43
424.2839 48
424.3673 48
424.4506 51
424.5340 49
424.6173 31
424.7006 27
424.7840 59
424.8673 60
424.9507 49
425.0340 38
425.1173 40
425.2007 38
425.2840 21
425.3674 33
425.4507 31
425.5340 19
425.6174 40
425.7007 58
425.7841 56
425.8674 89
425.9507 94
426.0341 108
426.1174 116
426.2008 80
426.2841 136
426.3674 90
426.4508 59
426.5341 48
426.6175 46
426.7008 35
426.7841 24
426.8675 52
426.9508 57
427.0342 57
427.1175 72
427.2008 77
427.2842 147
427.3675 127
427.4509 163
427.5342 176
427.6175 183
427.7009 179
427.7842 150
427.8676 127
427.9509 137
428.0342 44
428.1176 71
428.2009 51
428.2843 36
428.3676 48
428.4509 60
428.5343 80
428.6176 100
428.7010 117
428.7843 156
428.8676 224
428.9510 191
429.0343 192
429.1177 185
429.2010 205
429.2843 155
429.3677 127
429.4510 96
429.5344 70
429.6177 63
429.7010 28
429.7844 23
429.8677 48
429.9511 86
430.0344 114
430.1177 141
430.2011 172
430.2844 152
430.3678 178
430.4511 194
430.5344 206
430.6178 202
430.7011 166
430.7845 129
430.8678 123
430.9511 146
431.0345 64
431.1178 34
431.2012 54
431.2845 43
431.3678 54
431.4512 72
431.5345 121
431.6179 163
431.7012 144
431.7845 183
431.8679 236
431.9512 194
432.0346 207
432.1179 201
432.2012 181
432.2846 116
432.3679 118
432.4513 89
432.5346 53
432.6179 57
432.7013 57
432.7846 55
432.8680 70
432.9513 94
433.0346 163
433.1180 148
433.2013 203
433.2847 204
433.3680 197
433.4513 217
433.5347 150
433.6180 190
433.7014 156
433.7847 104
433.8680 82
433.9514 76
434.0347 47
434.1181 74
434.2014 61
434.2847 97
434.3681 82
434.4514 84
434.5348 114
434.6181 146
434.7014 125
434.7848 167
434.8681 143
434.9515 149
435.0348 158
435.1181 113
435.2015 89
435.2848 66
435.3682 53
435.4515 55
435.5348 30
435.6182 29
435.7015 73
435.7849 63
435.8682 64
435.9515 80
436.0349 102
436.1182 76
436.2016 91
436.2849 143
436.3682 100
436.4516 77
436.5349 90
436.6183 77
436.7016 90
436.7849 71
436.8683 50
436.9516 37
437.0350 43
437.1183 56
437.2016 51
437.2850 45
437.3683 47
437.4517 51
437.5350 67
437.6183 77
437.7017 70
437.7850 69
437.8684 60
437.9517 77
438.0350 72
438.1184 39
438.2017 53
438.2851 60
438.3684 44
438.4517 38
438.5351 60
438.6184 51
438.7018 47
438.7851 62
438.8684 42
438.9518 58
439.0351 25
439.1185 48
439.2018 39
439.2851 34
439.3685 33
439.4518 66
439.5352 40
439.6185 29
439.7018 37
439.7852 35
439.8685 46
439.9519 64
440.0352 54
440.1185 34
440.2019 35
440.2852 43
440.3686 48
440.4519 29
440.5352 23
440.6186 15
440.7019 4
440.7853 18
440.8686 51
440.9519 23
441.0353 25
441.1186 48
441.2020 18
441.2853 64
441.3686 40
441.4520 36
441.5353 75
441.6187 50
441.7020 39
441.7853 37
441.8687 43
441.9520 56
442.0354 34
442.1187 29
442.2020 21
442.2854 21
442.3687 10
442.4521 23
442.5354 21
442.6187 16
442.7021 19
442.7854 70
442.8688 37
442.9521 57
443.0354 42
443.1188 77
443.2021 60
443.2855 105
443.3688 38
443.4521 62
443.5355 56
443.6188 39
443.7022 62
443.7855 51
443.8688 40
443.9522 38
444.0355 14
444.1189 44
444.2022 37
444.2855 82
444.3689 46
444.4522 47
444.5356 98
444.6189 71
444.7022 100
444.7856 64
444.8689 98
444.9523 83
445.0356 62
445.1189 106
445.2023 51
445.2856 74
445.3690 55
445.4523 33
445.5356 27
445.6190 27
445.7023 24
445.7857 42
445.8690 65
445.9523 63
446.0357 108
446.1190 101
446.2024 107
446.2857 146
446.3690 93
446.4524 112
446.5357 131
446.6191 99
446.7024 68
446.7857 57
446.8691 31
446.9524 41
447.0358 16
447.1191 47
447.2024 47
447.2858 49
447.3691 75
447.4525 118
447.5358 125
447.6191 121
447.7025 146
447.7858 161
447.8692 118
447.9525 88
448.0358 84
448.1192 101
448.2025 53
448.2859 67
448.3692 39
448.4525 23
448.5359 41
448.6192 51
448.7026 67
448.7859 85
448.8692 109
448.9526 106
449.0359 133
449.1193 148
449.2026 124
449.2859 111
449.3693 128
449.4526 129
449.5360 115
449.6193 61
449.7026 84
449.7860 28
449.8693 34
449.9527 41
450.0360 45
450.1193 41
450.2027 65
450.2860 63
450.3694 136
450.4527 74
450.5360 116
450.6194 140
450.7027 155
450.7861 140
450.8694 128
450.9527 109
451.0361 76
451.1194 90
451.2028 52
451.2861 37
451.3694 28
451.4528 44
451.5361 40
451.6195 57
451.7028 83
451.7861 50
451.8695 80
451.9528 79
452.0362 101
452.1195 114
452.2028 138
452.2862 98
452.3695 98
452.4529 60
452.5362 97
452.6195 46
452.7029 41
452.7862 68
452.8696 50
452.9529 45
453.0362 29
453.1196 29
453.2029 43
453.2863 51
453.3696 86
453.4529 88
453.5363 70
453.6196 85
453.7030 59
453.7863 85
453.8696 51
453.9530 53
454.0363 45
454.1197 44
454.2030 18
454.2863 25
454.3697 40
454.4530 41
454.5364 21
454.6197 15
454.7030 83
454.7864 44
454.8697 57
454.9531 67
455.0364 50
455.1197 51
455.2031 39
455.2864 23
455.3698 38
455.4531 28
455.5364 23
455.6198 26
455.7031 18
455.7865 14
455.8698 22
455.9531 24
456.0365 22
456.1198 27
456.2032 23
456.2865 20
456.3698 20
456.4532 27
456.5365 39
456.6199 37
456.7032 25
456.7865 39
456.8699 33
456.9532 28
457.0366 22
457.1199 34
457.2032 29
457.2866 30
457.3699 28
457.4533 20
457.5366 45
457.6199 33
457.7033 19
457.7866 22
457.8700 41
457.9533 44
458.0366 27
458.1200 22
458.2033 27
458.2867 24
458.3700 22
458.4533 10
458.5367 27
458.6200 35
458.7034 40
458.7867 26
458.8700 55
458.9534 31
459.0367 50
459.1201 20
459.2034 36
459.2867 27
459.3701 29
459.4534 24
459.5368 46
459.6201 42
459.7034 29
459.7868 12
459.8701 45
459.9535 17
460.0368 29
460.1201 17
460.2035 34
460.2868 20
460.3702 21
460.4535 44
460.5368 42
460.6202 32
460.7035 32
460.7869 17
460.8702 39
460.9535 43
461.0369 58
461.1202 29
461.2036 44
461.2869 51
461.3702 28
461.4536 13
461.5369 21
461.6203 23
461.7036 33
461.7869 24
461.8703 38
461.9536 60
462.0370 51
462.1203 54
462.2036 104
462.2870 76
462.3703 85
462.4537 73
462.5370 83
462.6203 48
462.7037 63
462.7870 60
462.8704 34
462.9537 26
463.0370 29
463.1204 16
463.2037 34
463.2871 45
463.3704 68
463.4537 71
463.5371 112
463.6204 123
463.7038 91
463.7871 105
463.8704 112
463.9538 110
464.0371 74
464.1205 62
464.2038 51
464.2871 55
464.3705 21
464.4538 23
464.5372 48
464.6205 29
464.7038 44
464.7872 32
464.8705 106
464.9539 89
465.0372 114
465.1205 94
465.2039 139
465.2872 118
465.3706 121
465.4539 110
465.5372 92
465.6206 77
465.7039 44
465.7873 56
465.8706 42
465.9539 36
466.0373 25
466.1206 42
466.2040 82
466.2873 109
466.3706 91
466.4540 100
466.5373 125
466.6207 169
466.7040 149
466.7873 167
466.8707 143
466.9540 132
467.0374 171
467.1207 93
467.2040 88
467.2874 73
467.3707 29
467.4541 48
467.5374 53
467.6207 47
467.7041 57
467.7874 68
467.8708 118
467.9541 132
468.0374 130
468.1208 97
468.2041 110
468.2875 114
468.3708 138
468.4541 135
468.5375 81
468.6208 81
468.7042 43
468.7875 67
468.8708 51
468.9542 22
469.0375 39
469.1209 38
469.2042 90
469.2875 91
469.3709 93
469.4542 119
469.5376 108
469.6209 83
469.7042 117
469.7876 83
469.8709 83
469.9543 68
470.0376 58
470.1209 75
470.2043 68
470.2876 37
470.3710 34
470.4543 41
470.5376 51
470.6210 60
470.7043 72
470.7877 70
470.8710 51
470.9543 58
471.0377 62
471.1210 84
471.2044 77
471.2877 67
471.3710 57
471.4544 84
471.5377 49
471.6211 54
471.7044 25
471.7877 52
471.8711 38
471.9544 48
472.0378 43
472.1211 41
472.2044 52
472.2878 63
472.3711 51
472.4545 59
472.5378 70
472.6211 51
472.7045 60
472.7878 52
472.8712 43
472.9545 54
473.0378 46
473.1212 59
473.2045 41
473.2879 57
473.3712 45
473.4545 44
473.5379 37
473.6212 28
473.7046 50
473.7879 40
473.8712 47
473.9546 54
474.0379 32
474.1213 71
474.2046 23
474.2879 57
474.3713 21
474.4546 24
474.5380 37
474.6213 17
474.7046 37
474.7880 28
474.8713 21
474.9547 27
475.0380 48
475.1213 19
475.2047 30
475.2880 22
475.3714 24
475.4547 38
475.5380 45
475.6214 24
475.7047 12
475.7881 31
475.8714 29
475.9547 30
476.0381 17
476.1214 31
476.2048 45
476.2881 27
476.3714 48
476.4548 24
476.5381 25
476.6215 31
476.7048 18
476.7881 31
476.8715 33
476.9548 45
477.0382 6
477.1215 25
477.2048 14
477.2882 14
477.3715 14
477.4549 11
477.5382 20
477.6215 24
477.7049 36
477.7882 19
477.8716 32
477.9549 23
478.0382 45
478.1216 23
478.2049 67
478.2883 64
478.3716 22
478.4549 21
478.5383 44
478.6216 36
478.7050 23
478.7883 29
478.8716 16
478.9550 26
479.0383 28
479.1217 11
479.2050 19
479.2883 32
479.3717 31
479.4550 38
479.5384 23
479.6217 58
479.7050 32
479.7884 71
479.8717 45
479.9551 44
480.0384 56
480.1217 36
480.2051 36
480.2884 36
480.3718 51
480.4551 14
480.5384 18
480.6218 58
480.7051 27
480.7885 18
480.8718 30
480.9551 48
481.0385 44
481.1218 84
481.2052 50
481.2885 53
481.3718 57
481.4552 50
481.5385 54
481.6219 41
481.7052 45
481.7885 25
481.8719 30
481.9552 18
482.0386 13
482.1219 19
482.2052 22
482.2886 36
482.3719 57
482.4553 76
482.5386 48
482.6219 76
482.7053 80
482.7886 67
482.8720 55
482.9553 71
483.0386 78
483.1220 67
483.2053 55
483.2887 27
483.3720 36
483.4553 22
483.5387 22
483.6220 7
483.7054 22
483.7887 22
483.8720 41
483.9554 61
484.0387 71
484.1221 79
484.2054 73
484.2887 86
484.3721 88
484.4554 83
484.5388 109
484.6221 47
484.7054 56
484.7888 30
484.8721 51
484.9555 17
485.0388 12
485.1221 20
485.2055 21
485.2888 28
485.3722 32
485.4555 73
485.5388 50
485.6222 95
485.7055 75
485.7889 90
485.8722 88
485.9555 77
486.0389 102
486.1222 58
486.2056 61
486.2889 49
486.3722 39
486.4556 29
486.5389 15
486.6223 38
486.7056 39
486.7889 36
486.8723 50
486.9556 79
487.0390 80
487.1223 35
487.2056 94
487.2890 58
487.3723 79
487.4557 90
487.5390 46
487.6223 43
487.7057 46
487.7890 39
487.8724 26
487.9557 37
488.0390 36
488.1224 18
488.2057 27
488.2891 19
488.3724 50
488.4557 42
488.5391 53
488.6224 49
488.7058 79
488.7891 80
488.8724 56
488.9558 67
489.0391 56
489.1225 43
489.2058 51
489.2891 29
489.3725 31
489.4558 39
489.5392 20
489.6225 31
489.7058 37
489.7892 18
489.8725 53
489.9559 50
490.0392 28
490.1225 63
490.2059 43
490.2892 19
490.3726 35
490.4559 38
490.5392 30
490.6226 50
490.7059 38
490.7893 36
490.8726 62
490.9559 15
491.0393 15
491.1226 30
491.2060 8
491.2893 25
491.3726 13
491.4560 28
491.5393 41
491.6227 15
491.7060 45
491.7893 56
491.8727 26
491.9560 19
492.0394 35
492.1227 33
492.2060 18
492.2894 26
492.3727 33
492.4561 16
492.5394 18
492.6227 12
492.7061 33
492.7894 18
492.8728 16
492.9561 16
493.0394 31
493.1228 23
493.2061 33
493.2895 3
493.3728 13
493.4561 16
493.5395 29
493.6228 20
493.7062 12
493.7895 36
493.8728 10
493.9562 17
494.0395 13
494.1229 15
494.2062 26
494.2895 27
494.3729 14
494.4562 22
494.5396 22
494.6229 29
494.7062 31
494.7896 7
494.8729 17
494.9563 19
495.0396 11
495.1229 23
495.2063 21
495.2896 43
495.3730 18
495.4563 18
495.5396 14
495.6230 20
495.7063 24
495.7897 28
495.8730 21
495.9563 58
496.0397 19
496.1230 33
496.2064 34
496.2897 11
496.3730 9
496.4564 29
496.5397 6
496.6231 15
496.7064 51
496.7897 30
496.8731 49
496.9564 17
497.0398 11
497.1231 15
497.2064 14
497.2898 16
497.3731 12
497.4565 39
497.5398 21
497.6231 40
497.7065 35
497.7898 22
497.8732 21
497.9565 17
498.0398 19
498.1232 24
498.2065 15
498.2899 17
498.3732 28
498.4565 13
498.5399 58
498.6232 20
498.7066 35
498.7899 34
498.8732 26
498.9566 39
499.0399 44
499.1233 33
499.2066 44
499.2899 39
499.3733 48
499.4566 30
499.5400 57
499.6233 18
499.7066 14
499.7900 14
499.8733 9
499.9567 49
500.0400 23
500.1233 19
500.2067 28
500.2900 37
500.3734 32
500.4567 47
500.5400 26
500.6234 42
500.7067 52
500.7901 42
500.8734 30
500.9567 32
501.0401 36
501.1234 10
501.2068 18
501.2901 25
501.3734 66
501.4568 38
501.5401 24
501.6235 27
501.7068 18
501.7901 49
501.8735 48
501.9568 53
502.0402 33
502.1235 47
502.2068 52
502.2902 46
502.3735 39
502.4569 39
502.5402 18
502.6235 39
502.7069 43
502.7902 25
502.8736 15
502.9569 15
503.0402 20
503.1236 22
503.2069 56
503.2903 63
503.3736 48
503.4569 52
503.5403 46
503.6236 53
503.7070 53
503.7903 29
503.8736 61
503.9570 30
504.0403 49
504.1237 27
504.2070 10
504.2903 40
504.3737 14
504.4570 22
504.5404 23
504.6237 60
504.7070 38
504.7904 59
504.8737 57
504.9571 48
505.0404 33
505.1237 44
505.2071 35
505.2904 48
505.3738 42
505.4571 52
505.5404 38
505.6238 47
505.7071 30
505.7905 36
505.8738 13
505.9571 21
506.0405 13
506.1238 41
506.2072 34
506.2905 63
506.3738 33
506.4572 36
506.5405 41
506.6239 31
506.7072 35
506.7905 28
506.8739 60
506.9572 36
507.0406 54
507.1239 19
507.2072 24
507.2906 43
507.3739 20
507.4573 18
507.5406 21
507.6239 39
507.7073 40
507.7906 20
507.8740 55
507.9573 15
508.0406 22
508.1240 34
508.2073 17
508.2907 20
508.3740 33
508.4573 15
508.5407 25
508.6240 20
508.7074 12
508.7907 19
508.8740 28
508.9574 13
509.0407 63
509.1241 18
509.2074 15
509.2907 20
509.3741 55
509.4574 17
509.5408 89
509.6241 7
509.7074 12
509.7908 32
509.8741 22
509.9575 32
510.0408 13
510.1241 23
510.2075 26
510.2908 25
510.3742 40
510.4575 27
510.5408 25
510.6242 31
510.7075 11
510.7909 33
510.8742 27
510.9575 11
511.0409 22
511.1242 15
511.2076 12
511.2909 24
511.3742 23
511.4576 40
511.5409 46
511.6243 21
511.7076 9
511.7909 19
511.8743 11
511.9576 34
512.0410 10
512.1243 8
512.2076 42
512.2910 31
512.3743 26
512.4577 43
512.5410 9
512.6243 44
512.7077 55
512.7910 20
512.8744 33
512.9577 14
513.0410 11
513.1244 31
513.2077 8
513.2911 23
513.3744 31
513.4577 10
513.5411 15
513.6244 17
513.7078 18
513.7911 9
513.8744 40
513.9578 31
514.0411 20
514.1245 16
514.2078 27
514.2911 21
514.3745 30
514.4578 11
514.5412 6
514.6245 17
514.7078 23
514.7912 33
514.8745 25
514.9579 20
515.0412 19
515.1245 16
515.2079 42
515.2912 17
515.3746 62
515.4579 19
515.5412 39
515.6246 17
515.7079 24
515.7913 52
515.8746 28
515.9579 44
516.0413 29
516.1246 19
516.2080 11
516.2913 14
516.3746 25
516.4580 32
516.5413 16
516.6247 14
516.7080 23
516.7913 53
516.8747 30
516.9580 31
517.0414 8
517.1247 18
517.2080 13
517.2914 26
517.3747 36
517.4581 27
517.5414 9
517.6247 12
517.7081 40
517.7914 16
517.8748 19
517.9581 37
518.0414 70
518.1248 39
518.2081 26
518.2915 27
518.3748 40
518.4581 32
518.5415 23
518.6248 38
518.7082 26
518.7915 27
518.8748 20
518.9582 21
519.0415 46
519.1249 17
519.2082 32
519.2915 13
519.3749 9
519.4582 25
519.5416 40
519.6249 25
519.7082 42
519.7916 45
519.8749 28
519.9583 23
520.0416 27
520.1249 44
520.2083 62
520.2916 30
520.3750 21
520.4583 13
520.5416 17
520.6250 9
520.7083 22
520.7917 15
520.8750 16
520.9583 24
521.0417 43
521.1250 31
521.2084 10
521.2917 45
521.3750 26
521.4584 51
521.5417 23
521.6251 16
521.7084 56
521.7917 27
521.8751 21
521.9584 23
522.0418 16
522.1251 20
522.2084 20
522.2918 38
522.3751 55
522.4585 38
522.5418 9
522.6251 19
522.7085 42
522.7918 10
522.8752 39
522.9585 29
523.0418 26
523.1252 17
523.2085 21
523.2919 15
523.3752 43
523.4585 16
523.5419 36
523.6252 25
523.7086 5
523.7919 10
523.8752 6
523.9586 6
524.0419 12
524.1253 36
524.2086 43
524.2919 16
524.3753 42
524.4586 29
524.5420 36
524.6253 33
524.7086 13
524.7920 6
524.8753 5
524.9587 9
525.0420 33
525.1253 14
525.2087 23
525.2920 14
525.3754 21
525.4587 8
525.5420 20
525.6254 40
525.7087 19
525.7921 18
525.8754 11
525.9587 25
526.0421 18
526.1254 13
526.2088 18
526.2921 26
526.3754 12
526.4588 14
526.5421 12
526.6255 13
526.7088 24
526.7921 17
526.8755 7
526.9588 26
527.0422 14
527.1255 15
527.2088 20
527.2922 12
527.3755 23
527.4589 46
527.5422 25
527.6255 11
527.7089 15
527.7922 15
527.8756 27
527.9589 23
528.0422 18
528.1256 12
528.2089 9
528.2923 26
528.3756 22
528.4589 23
528.5423 18
528.6256 18
528.7090 2
528.7923 7
528.8756 6
528.9590 2
529.0423 12
529.1257 28
529.2090 14
529.2923 21
529.3757 20
529.4590 22
529.5424 32
529.6257 12
529.7090 13
529.7924 13
529.8757 13
529.9591 24
530.0424 11
530.1257 17
530.2091 10
530.2924 17
530.3758 19
530.4591 7
530.5424 30
530.6258 20
530.7091 8
530.7925 8
530.8758 10
530.9591 15
531.0425 33
531.1258 25
531.2092 21
531.2925 11
531.3758 54
531.4592 19
531.5425 5
531.6259 10
531.7092 2
531.7925 25
531.8759 6
531.9592 31
532.0426 7
532.1259 15
532.2092 23
532.2926 18
532.3759 31
532.4593 20
532.5426 15
532.6259 3
532.7093 20
532.7926 8
532.8760 9
532.9593 10
533.0426 16
533.1260 27
533.2093 10
533.2927 25
533.3760 21
533.4593 10
533.5427 17
533.6260 32
533.7094 16
533.7927 16
533.8760 24
533.9594 7
534.0427 14
534.1261 13
534.2094 15
534.2927 19
534.3761 22
534.4594 30
534.5428 12
534.6261 11
534.7094 32
534.7928 30
534.8761 18
534.9595 13
535.0428 18
535.1261 6
535.2095 5
535.2928 16
535.3762 39
535.4595 26
535.5428 22
535.6262 7
535.7095 35
535.7929 21
535.8762 14
535.9595 31
536.0429 27
536.1262 12
536.2096 31
536.2929 5
536.3762 20
536.4596 19
536.5429 23
536.6263 33
536.7096 17
536.7929 31
536.8763 16
536.9596 18
537.0430 32
537.1263 24
537.2096 23
537.2930 30
537.3763 14
537.4597 10
537.5430 8
537.6263 7
537.7097 17
537.7930 17
537.8764 10
537.9597 13
538.0430 26
538.1264 6
538.2097 15
538.2931 13
538.3764 7
538.4597 9
538.5431 9
538.6264 17
538.7098 26
538.7931 18
538.8764 1
538.9598 13
539.0431 34
539.1265 12
539.2098 24
539.2931 11
539.3765 26
539.4598 4
539.5432 19
539.6265 13
539.7098 16
539.7932 5
539.8765 24
539.9599 24
540.0432 8
540.1265 14
540.2099 13
540.2932 22
540.3766 18
540.4599 8
540.5432 18
540.6266 17
540.7099 11
540.7933 13
540.8766 8
540.9599 15
541.0433 17
541.1266 26
541.2100 20
541.2933 17
541.3766 11
541.4600 8
541.5433 5
541.6267 29
541.7100 33
541.7933 27
541.8767 9
541.9600 21
542.0434 13
542.1267 4
542.2100 17
542.2934 26
542.3767 12
542.4601 39
542.5434 40
542.6267 27
542.7101 30
542.7934 46
542.8768 15
542.9601 42
543.0434 23
543.1268 10
543.2101 10
543.2935 6
543.3768 9
543.4601 9
543.5435 29
543.6268 14
543.7102 14
543.7935 12
543.8768 19
543.9602 18
544.0435 17
544.1269 15
544.2102 28
544.2935 10
544.3769 17
544.4602 17
544.5436 9
544.6269 27
544.7102 2
544.7936 59
544.8769 11
544.9603 6
545.0436 12
545.1269 41
545.2103 17
545.2936 24
545.3770 21
545.4603 5
545.5436 11
545.6270 32
545.7103 21
545.7937 22
545.8770 26
545.9603 16
546.0437 38
546.1270 17
546.2104 7
546.2937 18
546.3770 9
546.4604 25
546.5437 14
546.6271 4
546.7104 14
546.7937 14
546.8771 12
546.9604 33
547.0438 23
547.1271 4
547.2104 39
547.2938 29
547.3771 25
547.4605 19
547.5438 24
547.6271 16
547.7105 34
547.7938 19
547.8772 9
547.9605 22
548.0438 24
548.1272 21
548.2105 14
548.2939 3
548.3772 16
548.4605 22
548.5439 13
548.6272 20
548.7106 17
548.7939 3
548.8772 22
548.9606 29
549.0439 12
549.1273 37
549.2106 6
549.2939 5
549.3773 20
549.4606 18
549.5440 12
549.6273 16
549.7106 10
549.7940 11
549.8773 56
549.9607 13
550.0440 12
550.1273 28
550.2107 9
550.2940 24
550.3774 15
550.4607 21
550.5440 18
550.6274 14
550.7107 31
550.7941 11
550.8774 31
550.9607 13
551.0441 21
551.1274 7
551.2108 3
551.2941 26
551.3774 18
551.4608 31
551.5441 14
551.6275 25
551.7108 12
551.7941 20
551.8775 7
551.9608 6
552.0442 29
552.1275 22
552.2108 11
552.2942 23
552.3775 20
552.4609 18
552.5442 27
552.6275 21
552.7109 30
552.7942 13
552.8776 9
552.9609 5
553.0442 33
553.1276 17
553.2109 16
553.2943 10
553.3776 20
553.4609 15
553.5443 4
553.6276 9
553.7110 4
553.7943 30
553.8776 15
553.9610 9
554.0443 5
554.1277 37
554.2110 37
554.2943 17
554.3777 4
554.4610 3
554.5444 9
554.6277 8
554.7110 28
554.7944 8
554.8777 18
554.9611 7
555.0444 16
555.1277 6
555.2111 16
555.2944 33
555.3778 26
555.4611 6
555.5444 23
555.6278 16
555.7111 9
555.7945 14
555.8778 10
555.9611 23
556.0445 38
556.1278 28
556.2112 17
556.2945 21
556.3778 8
556.4612 29
556.5445 10
556.6279 26
556.7112 7
556.7945 29
556.8779 7
556.9612 14
557.0446 19
557.1279 15
557.2112 29
557.2946 14
557.3779 38
557.4613 13
557.5446 8
557.6279 15
557.7113 21
557.7946 15
557.8780 10
557.9613 7
558.0446 14
558.1280 5
558.2113 4
558.2947 17
558.3780 17
558.4613 12
558.5447 31
558.6280 26
558.7114 26
558.7947 13
558.8780 13
558.9614 29
559.0447 15
559.1281 13
559.2114 14
559.2947 27
559.3781 18
559.4614 35
559.5448 12
559.6281 24
559.7114 31
559.7948 21
559.8781 23
559.9615 8
560.0448 9
560.1281 25
560.2115 34
560.2948 13
560.3782 2
560.4615 10
560.5448 13
560.6282 12
560.7115 15
560.7949 14
560.8782 34
560.9615 18
561.0449 6
561.1282 5
561.2116 24
561.2949 34
561.3782 16
561.4616 9
561.5449 20
561.6283 13
561.7116 38
561.7949 33
561.8783 8
561.9616 10
562.0450 42
562.1283 29
562.2116 13
562.2950 20
562.3783 21
562.4617 32
562.5450 7
562.6283 6
562.7117 19
562.7950 2
562.8784 16
562.9617 40
563.0450 23
563.1284 4
563.2117 29
563.2951 6
563.3784 15
563.4617 10
563.5451 42
563.6284 17
563.7118 10
563.7951 23
563.8784 16
563.9618 7
564.0451 12
564.1285 12
564.2118 5
564.2951 4
564.3785 9
564.4618 12
564.5452 9
564.6285 18
564.7118 18
564.7952 26
564.8785 23
564.9619 12
565.0452 4
565.1285 20
565.2119 15
565.2952 23
565.3786 23
565.4619 26
565.5452 19
565.6286 15
565.7119 11
565.7953 13
565.8786 29
565.9619 21
566.0453 23
566.1286 34
566.2120 0
566.2953 12
566.3786 10
566.4620 18
566.5453 11
566.6287 27
566.7120 0
566.7953 7
566.8787 31
566.9620 9
567.0454 12
567.1287 13
567.2120 10
567.2954 39
567.3787 8
567.4621 33
567.5454 22
567.6287 16
567.7121 11
567.7954 23
567.8788 8
567.9621 4
568.0454 6
568.1288 17
568.2121 18
568.2955 8
568.3788 16
568.4621 11
568.5455 18
568.6288 5
568.7122 4
568.7955 28
568.8788 11
568.9622 13
569.0455 23
569.1289 22
569.2122 31
569.2955 15
569.3789 28
569.4622 5
569.5456 43
569.6289 26
569.7122 24
569.7956 8
569.8789 23
569.9623 5
570.0456 14
570.1289 33
570.2123 10
570.2956 30
570.3790 19
570.4623 32
570.5456 25
570.6290 8
570.7123 4
570.7957 20
570.8790 11
570.9623 14
571.0457 18
571.1290 26
571.2124 26
571.2957 8
571.3790 12
571.4624 8
571.5457 28
571.6291 19
571.7124 34
571.7957 20
571.8791 30
571.9624 28
572.0458 16
572.1291 17
572.2124 22
572.2958 15
572.3791 10
572.4625 9
572.5458 15
572.6291 5
572.7125 32
572.7958 8
572.8792 10
572.9625 19
573.0458 7
573.1292 9
573.2125 17
573.2959 14
573.3792 5
573.4625 16
573.5459 7
573.6292 27
573.7126 30
573.7959 22
573.8792 20
573.9626 18
574.0459 45
574.1293 43
574.2126 35
574.2959 14
574.3793 29
574.4626 8
574.5460 28
574.6293 15
574.7126 14
574.7960 11
574.8793 4
574.9627 31
575.0460 28
575.1293 13
575.2127 11
575.2960 17
575.3794 9
575.4627 31
575.5460 21
575.6294 23
575.7127 31
575.7961 16
575.8794 9
575.9627 30
576.0461 4
576.1294 45
576.2128 12
576.2961 44
576.3794 15
576.4628 38
576.5461 7
576.6295 29
576.7128 22
576.7961 14
576.8795 8
576.9628 23
577.0462 12
577.1295 13
577.2128 15
577.2962 24
577.3795 20
577.4629 8
577.5462 1
577.6295 12
577.7129 7
577.7962 40
577.8796 14
577.9629 4
578.0462 20
578.1296 8
578.2129 22
578.2963 20
578.3796 17
578.4629 9
578.5463 15
578.6296 1
578.7130 32
578.7963 14
578.8796 4
578.9630 8
579.0463 16
579.1297 8
579.2130 31
579.2963 0
579.3797 18
579.4630 40
579.5464 21
579.6297 9
579.7130 16
579.7964 29
579.8797 8
579.9631 14
580.0464 14
580.1297 3
580.2131 24
580.2964 13
580.3798 30
580.4631 23
580.5464 8
580.6298 4
580.7131 7
580.7965 7
580.8798 22
580.9631 19
581.0465 18
581.1298 7
581.2132 25
581.2965 6
581.3798 5
581.4632 7
581.5465 14
581.6299 14
581.7132 16
581.7965 12
581.8799 13
581.9632 14
582.0466 24
582.1299 23
582.2132 19
582.2966 19
582.3799 18
582.4633 26
582.5466 10
582.6299 7
582.7133 15
582.7966 5
582.8800 3
582.9633 46
583.0466 17
583.1300 9
583.2133 23
583.2967 19
583.3800 18
583.4633 23
583.5467 17
583.6300 5
583.7134 15
583.7967 42
583.8800 27
583.9634 11
584.0467 17
584.1301 11
584.2134 14
584.2967 12
584.3801 34
584.4634 4
584.5468 15
584.6301 14
584.7134 5
584.7968 4
584.8801 12
584.9635 6
585.0468 17
585.1301 10
585.2135 11
585.2968 15
585.3802 4
585.4635 14
585.5468 6
585.6302 9
585.7135 12
585.7969 12
585.8802 9
585.9635 21
586.0469 11
586.1302 7
586.2136 20
586.2969 12
586.3802 14
586.4636 26
586.5469 23
586.6303 24
586.7136 0
586.7969 3
586.8803 20
586.9636 5
587.0470 17
587.1303 14
587.2136 16
587.2970 38
587.3803 7
587.4637 16
587.5470 3
587.6303 9
587.7137 8
587.7970 14
587.8804 11
587.9637 11
588.0470 28
588.1304 18
588.2137 7
588.2971 1
588.3804 9
588.4637 11
588.5471 24
588.6304 20
588.7138 11
588.7971 11
588.8804 23
588.9638 4
589.0471 23
589.1305 2
589.2138 3
589.2971 12
589.3805 12
589.4638 23
589.5472 10
589.6305 51
589.7138 17
589.7972 24
589.8805 13
589.9639 9
590.0472 11
590.1305 19
590.2139 14
590.2972 13
590.3806 17
590.4639 26
590.5472 6
590.6306 8
590.7139 28
590.7973 23
590.8806 6
590.9639 8
591.0473 6
591.1306 11
591.2140 18
591.2973 9
591.3806 11
591.4640 7
591.5473 3
591.6307 37
591.7140 25
591.7973 3
591.8807 41
591.9640 18
592.0474 36
592.1307 14
592.2140 16
592.2974 4
592.3807 25
592.4641 27
592.5474 25
592.6307 24
592.7141 16
592.7974 11
592.8808 21
592.9641 29
593.0474 42
593.1308 7
593.2141 31
593.2975 18
593.3808 1
593.4641 16
593.5475 7
593.6308 11
593.7142 5
593.7975 8
593.8808 2
593.9642 25
594.0475 24
594.1309 42
594.2142 37
594.2975 9
594.3809 14
594.4642 1
594.5476 17
594.6309 16
594.7142 9
594.7976 30
594.8809 11
594.9643 23
595.0476 19
595.1309 14
595.2143 28
595.2976 45
595.3810 7
595.4643 9
595.5476 18
595.6310 14
595.7143 31
595.7977 10
595.8810 29
595.9643 18
596.0477 10
596.1310 7
596.2144 18
596.2977 33
596.3810 9
596.4644 30
596.5477 30
596.6311 43
596.7144 18
596.7977 22
596.8811 2
596.9644 16
597.0478 22
597.1311 17
597.2144 16
597.2978 16
597.3811 7
597.4645 9
597.5478 18
597.6311 15
597.7145 7
597.7978 4
597.8812 31
597.9645 27
598.0478 13
598.1312 14
598.2145 14
598.2979 27
598.3812 6
598.4645 17
598.5479 11
598.6312 14
598.7146 7
598.7979 12
598.8812 9
598.9646 8
599.0479 8
599.1313 21
599.2146 20
599.2979 3
599.3813 12
599.4646 28
599.5480 23
599.6313 3
599.7146 32
599.7980 2
599.8813 14
599.9647 14
