0.0000 99
0.0833 24
0.1667 44
0.2500 46
0.3334 85
0.4167 55
0.5000 83
0.5834 75
0.6667 77
0.7501 71
0.8334 64
0.9167 122
1.0001 52
1.0834 77
1.1668 52
1.2501 83
1.3334 63
1.4168 33
1.5001 75
1.5835 73
1.6668 87
1.7501 47
1.8335 63
1.9168 74
2.0002 31
2.0835 47
2.1668 70
2.2502 63
2.3335 22
2.4169 34
2.5002 72
2.5835 58
2.6669 27
2.7502 44
2.8336 73
2.9169 59
3.0002 93
3.0836 47
3.1669 87
3.2503 56
3.3336 84
3.4169 49
3.5003 71
3.5836 66
3.6670 72
3.7503 108
3.8336 75
3.9170 44
4.0003 20
4.0837 45
4.1670 45
4.2503 93
4.3337 68
4.4170 63
4.5004 82
4.5837 64
4.6670 95
4.7504 73
4.8337 50
4.9171 57
5.0004 60
5.0837 100
5.1671 59
5.2504 79
5.3338 67
5.4171 76
5.5004 56
5.5838 79
5.6671 124
5.7505 44
5.8338 55
5.9171 24
6.0005 94
6.0838 47
6.1672 31
6.2505 10
6.3338 40
6.4172 72
6.5005 45
6.5839 74
6.6672 44
6.7505 65
6.8339 44
6.9172 107
7.0006 36
7.0839 58
7.1672 40
7.2506 70
7.3339 53
7.4173 89
7.5006 56
7.5839 54
7.6673 57
7.7506 98
7.8340 33
7.9173 74
8.0006 76
8.0840 59
8.1673 77
8.2507 34
8.3340 74
8.4173 24
8.5007 50
8.5840 55
8.6674 97
8.7507 85
8.8340 75
8.9174 65
9.0007 66
9.0841 28
9.1674 27
9.2507 72
9.3341 63
9.4174 20
9.5008 51
9.5841 18
9.6674 18
9.7508 61
9.8341 66
9.9175 40
10.0008 71
10.0841 57
10.1675 60
10.2508 55
10.3342 54
10.4175 56
10.5008 50
10.5842 49
10.6675 77
10.7509 34
10.8342 39
10.9175 20
11.0009 41
11.0842 84
11.1676 17
11.2509 44
11.3342 13
11.4176 60
11.5009 41
11.5843 23
11.6676 18
11.7509 13
11.8343 2
11.9176 3
12.0010 22
12.0843 16
12.1676 30
12.2510 34
12.3343 39
12.4177 49
12.5010 54
12.5843 41
12.6677 23
12.7510 41
12.8344 27
12.9177 26
13.0010 92
13.0844 15
13.1677 16
13.2511 67
13.3344 22
13.4177 15
13.5011 24
13.5844 9
13.6678 15
13.7511 28
13.8344 50
13.9178 24
14.0011 61
14.0845 40
14.1678 40
14.2511 30
14.3345 20
14.4178 51
14.5012 55
14.5845 89
14.6678 61
14.7512 48
14.8345 51
14.9179 46
15.0012 62
15.0845 27
15.1679 65
15.2512 66
15.3346 40
15.4179 50
15.5012 25
15.5846 24
15.6679 44
15.7513 28
15.8346 71
15.9179 50
16.0013 66
16.0846 56
16.1680 38
16.2513 23
16.3346 53
16.4180 32
16.5013 24
16.5847 27
16.6680 65
16.7513 58
16.8347 35
16.9180 25
17.0014 23
17.0847 16
17.1680 53
17.2514 56
17.3347 74
17.4181 62
17.5014 60
17.5847 16
17.6681 51
17.7514 20
17.8348 18
17.9181 47
18.0014 42
18.0848 32
18.1681 31
18.2515 24
18.3348 35
18.4181 40
18.5015 25
18.5848 37
18.6682 52
18.7515 37
18.8348 19
18.9182 16
19.0015 23
19.0849 43
19.1682 55
19.2515 42
19.3349 45
19.4182 37
19.5016 44
19.5849 50
19.6682 19
19.7516 63
19.8349 54
19.9183 38
20.0016 45
20.0849 42
20.1683 23
20.2516 20
20.3350 34
20.4183 48
20.5016 13
20.5850 43
20.6683 35
20.7517 14
20.8350 19
20.9183 89
21.0017 32
21.0850 29
21.1684 42
21.2517 30
21.3350 61
21.4184 19
21.5017 31
21.5851 81
21.6684 52
21.7517 55
21.8351 19
21.9184 29
22.0018 23
22.0851 23
22.1684 21
22.2518 41
22.3351 39
22.4185 37
22.5018 23
22.5851 8
22.6685 54
22.7518 30
22.8352 33
22.9185 42
23.0018 32
23.0852 25
23.1685 51
23.2519 36
23.3352 25
23.4185 11
23.5019 29
23.5852 26
23.6686 20
23.7519 42
23.8352 34
23.9186 49
24.0019 32
24.0853 48
24.1686 56
24.2519 38
24.3353 45
24.4186 24
24.5020 45
24.5853 59
24.6686 31
24.7520 44
24.8353 38
24.9187 10
25.0020 53
25.0853 32
25.1687 20
25.2520 62
25.3354 43
25.4187 34
25.5020 28
25.5854 15
25.6687 38
25.7521 37
25.8354 28
25.9187 49
26.0021 30
26.0854 9
26.1688 2
26.2521 16
26.3354 53
26.4188 28
26.5021 31
26.5855 58
26.6688 31
26.7521 35
26.8355 37
26.9188 32
27.0022 36
27.0855 24
27.1688 45
27.2522 28
27.3355 50
27.4189 26
27.5022 24
27.5855 38
27.6689 26
27.7522 34
27.8356 27
27.9189 52
28.0022 38
28.0856 26
28.1689 31
28.2523 40
28.3356 20
28.4189 20
28.5023 51
28.5856 19
28.6690 49
28.7523 35
28.8356 26
28.9190 19
29.0023 60
29.0857 23
29.1690 60
29.2523 95
29.3357 81
29.4190 60
29.5024 34
29.5857 32
29.6690 48
29.7524 41
29.8357 53
29.9191 33
30.0024 59
30.0857 32
30.1691 44
30.2524 42
30.3358 62
30.4191 39
30.5024 35
30.5858 33
30.6691 38
30.7525 14
30.8358 13
30.9191 30
31.0025 49
31.0858 24
31.1692 28
31.2525 43
31.3358 36
31.4192 52
31.5025 20
31.5859 27
31.6692 30
31.7525 24
31.8359 20
31.9192 24
32.0026 24
32.0859 50
32.1692 25
32.2526 27
32.3359 22
32.4193 37
32.5026 31
32.5859 39
32.6693 8
32.7526 46
32.8360 24
32.9193 11
33.0026 43
33.0860 25
33.1693 35
33.2527 24
33.3360 29
33.4193 32
33.5027 28
33.5860 37
33.6694 20
33.7527 13
33.8360 10
33.9194 16
34.0027 29
34.0861 18
34.1694 17
34.2527 26
34.3361 31
34.4194 21
34.5028 20
34.5861 63
34.6694 30
34.7528 45
34.8361 17
34.9195 23
35.0028 39
35.0861 25
35.1695 42
35.2528 13
35.3362 66
35.4195 28
35.5028 15
35.5862 51
35.6695 35
35.7529 43
35.8362 19
35.9195 28
36.0029 24
36.0862 27
36.1696 36
36.2529 12
36.3362 35
36.4196 40
36.5029 28
36.5863 49
36.6696 16
36.7529 24
36.8363 42
36.9196 28
37.0030 21
37.0863 21
37.1696 53
37.2530 60
37.3363 39
37.4197 52
37.5030 26
37.5863 23
37.6697 29
37.7530 51
37.8364 40
37.9197 23
38.0030 31
38.0864 11
38.1697 3
38.2531 47
38.3364 23
38.4197 18
38.5031 23
38.5864 37
38.6698 37
38.7531 14
38.8364 31
38.9198 54
39.0031 19
39.0865 40
39.1698 25
39.2531 9
39.3365 46
39.4198 64
39.5032 42
39.5865 25
39.6698 18
39.7532 21
39.8365 47
39.9199 16
40.0032 32
40.0865 31
40.1699 34
40.2532 41
40.3366 30
40.4199 48
40.5032 43
40.5866 44
40.6699 32
40.7533 51
40.8366 27
40.9199 37
41.0033 31
41.0866 24
41.1700 26
41.2533 27
41.3366 21
41.4200 32
41.5033 62
41.5867 39
41.6700 48
41.7533 33
41.8367 43
41.9200 30
42.0034 20
42.0867 41
42.1700 40
42.2534 31
42.3367 53
42.4201 32
42.5034 24
42.5867 14
42.6701 36
42.7534 41
42.8368 8
42.9201 32
43.0034 27
43.0868 27
43.1701 26
43.2535 57
43.3368 74
43.4201 49
43.5035 28
43.5868 45
43.6702 33
43.7535 91
43.8368 28
43.9202 24
44.0035 15
44.0869 23
44.1702 16
44.2535 32
44.3369 45
44.4202 17
44.5036 33
44.5869 17
44.6702 30
44.7536 73
44.8369 38
44.9203 31
45.0036 31
45.0869 25
45.1703 36
45.2536 59
45.3370 39
45.4203 32
45.5036 62
45.5870 46
45.6703 35
45.7537 16
45.8370 26
45.9203 44
46.0037 24
46.0870 15
46.1704 33
46.2537 23
46.3370 18
46.4204 28
46.5037 50
46.5871 54
46.6704 14
46.7537 16
46.8371 14
46.9204 7
47.0038 40
47.0871 33
47.1704 42
47.2538 55
47.3371 22
47.4205 54
47.5038 40
47.5871 17
47.6705 28
47.7538 42
47.8372 21
47.9205 27
48.0038 22
48.0872 23
48.1705 34
48.2539 11
48.3372 46
48.4205 13
48.5039 37
48.5872 43
48.6706 41
48.7539 11
48.8372 46
48.9206 56
49.0039 18
49.0873 35
49.1706 21
49.2539 45
49.3373 61
49.4206 83
49.5040 39
49.5873 92
49.6706 23
49.7540 21
49.8373 40
49.9207 63
50.0040 57
50.0873 19
50.1707 9
50.2540 41
50.3374 33
50.4207 26
50.5040 14
50.5874 27
50.6707 25
50.7541 54
50.8374 18
50.9207 18
51.0041 15
51.0874 40
51.1708 45
51.2541 27
51.3374 12
51.4208 23
51.5041 29
51.5875 36
51.6708 35
51.7541 40
51.8375 34
51.9208 20
52.0042 23
52.0875 22
52.1708 30
52.2542 17
52.3375 46
52.4209 20
52.5042 35
52.5875 36
52.6709 33
52.7542 14
52.8376 39
52.9209 32
53.0042 53
53.0876 12
53.1709 22
53.2543 23
53.3376 11
53.4209 42
53.5043 31
53.5876 23
53.6710 60
53.7543 29
53.8376 18
53.9210 20
54.0043 44
54.0877 25
54.1710 21
54.2543 20
54.3377 72
54.4210 29
54.5044 35
54.5877 39
54.6710 14
54.7544 26
54.8377 58
54.9211 37
55.0044 76
55.0877 67
55.1711 76
55.2544 71
55.3378 46
55.4211 12
55.5044 37
55.5878 38
55.6711 41
55.7545 27
55.8378 45
55.9211 20
56.0045 23
56.0878 62
56.1712 45
56.2545 19
56.3378 37
56.4212 19
56.5045 27
56.5879 25
56.6712 33
56.7545 21
56.8379 21
56.9212 29
57.0046 19
57.0879 36
57.1712 44
57.2546 18
57.3379 32
57.4213 39
57.5046 32
57.5879 34
57.6713 15
57.7546 54
57.8380 39
57.9213 1
58.0046 16
58.0880 11
58.1713 9
58.2547 15
58.3380 25
58.4213 28
58.5047 17
58.5880 39
58.6714 49
58.7547 18
58.8380 40
58.9214 79
59.0047 26
59.0881 12
59.1714 20
59.2547 23
59.3381 47
59.4214 25
59.5048 3
59.5881 33
59.6714 31
59.7548 30
59.8381 41
59.9215 87
60.0048 17
60.0881 57
60.1715 51
60.2548 69
60.3382 56
60.4215 26
60.5048 20
60.5882 31
60.6715 44
60.7549 7
60.8382 19
60.9215 18
61.0049 26
61.0882 23
61.1716 35
61.2549 45
61.3382 40
61.4216 63
61.5049 26
61.5883 32
61.6716 37
61.7549 32
61.8383 24
61.9216 36
62.0050 19
62.0883 68
62.1716 41
62.2550 22
62.3383 22
62.4217 57
62.5050 13
62.5883 38
62.6717 49
62.7550 39
62.8384 20
62.9217 73
63.0050 40
63.0884 17
63.1717 40
63.2551 27
63.3384 40
63.4217 20
63.5051 56
63.5884 34
63.6718 27
63.7551 24
63.8384 57
63.9218 39
64.0051 35
64.0885 54
64.1718 23
64.2551 32
64.3385 31
64.4218 30
64.5052 41
64.5885 18
64.6718 36
64.7552 35
64.8385 36
64.9219 49
65.0052 59
65.0885 27
65.1719 40
65.2552 16
65.3386 44
65.4219 24
65.5052 38
65.5886 10
65.6719 18
65.7553 30
65.8386 19
65.9219 14
66.0053 47
66.0886 59
66.1720 69
66.2553 10
66.3386 41
66.4220 23
66.5053 39
66.5887 17
66.6720 13
66.7553 17
66.8387 25
66.9220 13
67.0054 35
67.0887 61
67.1720 25
67.2554 27
67.3387 15
67.4221 45
67.5054 15
67.5887 85
67.6721 80
67.7554 81
67.8388 73
67.9221 62
68.0054 95
68.0888 79
68.1721 73
68.2555 56
68.3388 50
68.4221 96
68.5055 112
68.5888 133
68.6722 26
68.7555 54
68.8388 62
68.9222 55
69.0055 60
69.0889 108
69.1722 54
69.2555 67
69.3389 89
69.4222 81
69.5056 76
69.5889 50
69.6722 53
69.7556 117
69.8389 81
69.9223 100
70.0056 82
70.0889 88
70.1723 50
70.2556 36
70.3390 19
70.4223 28
70.5056 27
70.5890 34
70.6723 41
70.7557 27
70.8390 36
70.9223 31
71.0057 12
71.0890 8
71.1724 13
71.2557 48
71.3390 30
71.4224 29
71.5057 52
71.5891 49
71.6724 31
71.7557 32
71.8391 74
71.9224 37
72.0058 25
72.0891 45
72.1724 20
72.2558 41
72.3391 19
72.4225 17
72.5058 30
72.5891 49
72.6725 40
72.7558 87
72.8392 44
72.9225 23
73.0058 23
73.0892 14
73.1725 87
73.2559 52
73.3392 24
73.4225 35
73.5059 36
73.5892 37
73.6726 15
73.7559 24
73.8392 42
73.9226 17
74.0059 32
74.0893 30
74.1726 22
74.2559 47
74.3393 72
74.4226 49
74.5060 41
74.5893 61
74.6726 64
74.7560 86
74.8393 77
74.9227 31
75.0060 42
75.0893 28
75.1727 34
75.2560 58
75.3394 62
75.4227 33
75.5060 38
75.5894 55
75.6727 64
75.7561 32
75.8394 20
75.9227 44
76.0061 29
76.0894 59
76.1728 40
76.2561 13
76.3394 57
76.4228 63
76.5061 82
76.5895 53
76.6728 73
76.7561 35
76.8395 34
76.9228 24
77.0062 36
77.0895 29
77.1728 66
77.2562 43
77.3395 37
77.4229 48
77.5062 46
77.5895 50
77.6729 55
77.7562 78
77.8396 24
77.9229 36
78.0062 44
78.0896 35
78.1729 22
78.2563 34
78.3396 78
78.4229 20
78.5063 28
78.5896 49
78.6730 31
78.7563 36
78.8396 25
78.9230 60
79.0063 30
79.0897 19
79.1730 21
79.2563 52
79.3397 27
79.4230 62
79.5064 42
79.5897 29
79.6730 20
79.7564 56
79.8397 72
79.9231 53
80.0064 63
80.0897 43
80.1731 39
80.2564 51
80.3398 74
80.4231 94
80.5064 23
80.5898 87
80.6731 52
80.7565 90
80.8398 60
80.9231 95
81.0065 49
81.0898 55
81.1732 47
81.2565 43
81.3398 45
81.4232 46
81.5065 32
81.5899 55
81.6732 19
81.7565 11
81.8399 20
81.9232 12
82.0066 18
82.0899 30
82.1732 44
82.2566 7
82.3399 32
82.4233 27
82.5066 29
82.5899 24
82.6733 20
82.7566 69
82.8400 73
82.9233 49
83.0066 37
83.0900 40
83.1733 34
83.2567 35
83.3400 38
83.4233 29
83.5067 29
83.5900 40
83.6734 31
83.7567 43
83.8400 57
83.9234 27
84.0067 31
84.0901 41
84.1734 43
84.2567 29
84.3401 20
84.4234 95
84.5068 42
84.5901 27
84.6734 82
84.7568 24
84.8401 36
84.9235 50
85.0068 23
85.0901 57
85.1735 41
85.2568 60
85.3402 67
85.4235 37
85.5068 37
85.5902 21
85.6735 38
85.7569 35
85.8402 22
85.9235 54
86.0069 51
86.0902 10
86.1736 16
86.2569 20
86.3402 22
86.4236 47
86.5069 23
86.5903 45
86.6736 25
86.7569 14
86.8403 32
86.9236 26
87.0070 37
87.0903 10
87.1736 18
87.2570 59
87.3403 18
87.4237 26
87.5070 15
87.5903 34
87.6737 18
87.7570 20
87.8404 31
87.9237 22
88.0070 14
88.0904 10
88.1737 19
88.2571 37
88.3404 17
88.4237 36
88.5071 33
88.5904 11
88.6738 10
88.7571 24
88.8404 60
88.9238 93
89.0071 62
89.0905 89
89.1738 41
89.2571 54
89.3405 43
89.4238 31
89.5072 44
89.5905 111
89.6738 31
89.7572 17
89.8405 21
89.9239 44
90.0072 12
90.0905 32
90.1739 20
90.2572 14
90.3406 66
90.4239 42
90.5072 30
90.5906 24
90.6739 15
90.7573 97
90.8406 46
90.9239 25
91.0073 43
91.0906 34
91.1740 16
91.2573 16
91.3406 30
91.4240 46
91.5073 18
91.5907 22
91.6740 12
91.7573 10
91.8407 28
91.9240 41
92.0074 16
92.0907 23
92.1740 32
92.2574 49
92.3407 44
92.4241 47
92.5074 52
92.5907 45
92.6741 23
92.7574 37
92.8408 67
92.9241 35
93.0074 42
93.0908 32
93.1741 38
93.2575 23
93.3408 19
93.4241 39
93.5075 50
93.5908 23
93.6742 40
93.7575 28
93.8408 11
93.9242 48
94.0075 27
94.0909 33
94.1742 18
94.2575 40
94.3409 35
94.4242 27
94.5076 7
94.5909 26
94.6742 27
94.7576 49
94.8409 24
94.9243 43
95.0076 40
95.0909 54
95.1743 55
95.2576 39
95.3410 61
95.4243 41
95.5076 75
95.5910 81
95.6743 55
95.7577 70
95.8410 80
95.9243 55
96.0077 66
96.0910 48
96.1744 55
96.2577 35
96.3410 50
96.4244 52
96.5077 44
96.5911 38
96.6744 42
96.7577 17
96.8411 45
96.9244 22
97.0078 34
97.0911 13
97.1744 18
97.2578 26
97.3411 41
97.4245 21
97.5078 50
97.5911 22
97.6745 48
97.7578 45
97.8412 57
97.9245 42
98.0078 32
98.0912 44
98.1745 60
98.2579 61
98.3412 56
98.4245 61
98.5079 83
98.5912 68
98.6746 38
98.7579 77
98.8412 43
98.9246 61
99.0079 65
99.0913 38
99.1746 52
99.2579 29
99.3413 51
99.4246 79
99.5080 43
99.5913 53
99.6746 53
99.7580 39
99.8413 31
99.9247 32
100.0080 46
100.0913 29
100.1747 36
100.2580 25
100.3414 21
100.4247 49
100.5080 32
100.5914 33
100.6747 29
100.7581 48
100.8414 68
100.9247 40
101.0081 36
101.0914 33
101.1748 31
101.2581 50
101.3414 73
101.4248 68
101.5081 60
101.5915 112
101.6748 93
101.7581 38
101.8415 53
101.9248 68
102.0082 45
102.0915 77
102.1748 46
102.2582 44
102.3415 41
102.4249 61
102.5082 44
102.5915 36
102.6749 30
102.7582 21
102.8416 38
102.9249 38
103.0082 16
103.0916 32
103.1749 31
103.2583 67
103.3416 19
103.4249 47
103.5083 24
103.5916 14
103.6750 18
103.7583 41
103.8416 23
103.9250 45
104.0083 45
104.0917 42
104.1750 48
104.2583 56
104.3417 39
104.4250 52
104.5084 41
104.5917 32
104.6750 64
104.7584 54
104.8417 34
104.9251 27
105.0084 70
105.0917 94
105.1751 45
105.2584 47
105.3418 32
105.4251 38
105.5084 39
105.5918 52
105.6751 37
105.7585 18
105.8418 44
105.9251 27
106.0085 28
106.0918 38
106.1752 47
106.2585 6
106.3418 36
106.4252 10
106.5085 33
106.5919 13
106.6752 39
106.7585 2
106.8419 30
106.9252 16
107.0086 13
107.0919 16
107.1752 12
107.2586 28
107.3419 27
107.4253 20
107.5086 27
107.5919 32
107.6753 16
107.7586 18
107.8420 25
107.9253 38
108.0086 34
108.0920 36
108.1753 28
108.2587 26
108.3420 31
108.4253 60
108.5087 29
108.5920 32
108.6754 22
108.7587 31
108.8420 37
108.9254 10
109.0087 41
109.0921 24
109.1754 62
109.2587 97
109.3421 93
109.4254 58
109.5088 38
109.5921 55
109.6754 52
109.7588 48
109.8421 78
109.9255 77
110.0088 97
110.0921 76
110.1755 66
110.2588 42
110.3422 86
110.4255 46
110.5088 96
110.5922 71
110.6755 94
110.7589 85
110.8422 76
110.9255 124
111.0089 89
111.0922 44
111.1756 74
111.2589 56
111.3422 60
111.4256 51
111.5089 27
111.5923 28
111.6756 26
111.7589 40
111.8423 40
111.9256 46
112.0090 26
112.0923 55
112.1756 59
112.2590 30
112.3423 33
112.4257 36
112.5090 40
112.5923 45
112.6757 93
112.7590 66
112.8424 90
112.9257 78
113.0090 60
113.0924 77
113.1757 62
113.2591 101
113.3424 52
113.4257 67
113.5091 72
113.5924 84
113.6758 79
113.7591 91
113.8424 61
113.9258 83
114.0091 65
114.0925 61
114.1758 70
114.2591 89
114.3425 51
114.4258 68
114.5092 73
114.5925 56
114.6758 74
114.7592 37
114.8425 22
114.9259 15
115.0092 60
115.0925 27
115.1759 27
115.2592 28
115.3426 48
115.4259 41
115.5092 60
115.5926 68
115.6759 67
115.7593 110
115.8426 54
115.9259 111
116.0093 116
116.0926 110
116.1760 92
116.2593 89
116.3426 104
116.4260 89
116.5093 88
116.5927 101
116.6760 111
116.7593 95
116.8427 80
116.9260 87
117.0094 55
117.0927 45
117.1760 63
117.2594 51
117.3427 39
117.4261 42
117.5094 39
117.5927 28
117.6761 24
117.7594 32
117.8428 36
117.9261 33
118.0094 20
118.0928 37
118.1761 45
118.2595 42
118.3428 30
118.4261 33
118.5095 58
118.5928 57
118.6762 70
118.7595 95
118.8428 60
118.9262 81
119.0095 69
119.0929 51
119.1762 53
119.2595 67
119.3429 65
119.4262 78
119.5096 44
119.5929 79
119.6762 88
119.7596 57
119.8429 53
119.9263 35
120.0096 33
120.0929 46
120.1763 36
120.2596 17
120.3430 16
120.4263 34
120.5096 33
120.5930 29
120.6763 14
120.7597 17
120.8430 26
120.9263 7
121.0097 1
121.0930 14
121.1764 28
121.2597 39
121.3430 9
121.4264 28
121.5097 17
121.5931 51
121.6764 65
121.7597 55
121.8431 57
121.9264 90
122.0098 79
122.0931 75
122.1764 58
122.2598 60
122.3431 77
122.4265 41
122.5098 57
122.5931 61
122.6765 96
122.7598 65
122.8432 64
122.9265 26
123.0098 49
123.0932 27
123.1765 63
123.2599 55
123.3432 74
123.4265 39
123.5099 61
123.5932 54
123.6766 54
123.7599 65
123.8432 76
123.9266 91
124.0099 32
124.0933 48
124.1766 14
124.2599 20
124.3433 28
124.4266 32
124.5100 32
124.5933 36
124.6766 57
124.7600 30
124.8433 23
124.9267 46
125.0100 53
125.0933 39
125.1767 50
125.2600 41
125.3434 73
125.4267 31
125.5100 59
125.5934 47
125.6767 43
125.7601 49
125.8434 16
125.9267 35
126.0101 41
126.0934 59
126.1768 68
126.2601 36
126.3434 25
126.4268 69
126.5101 52
126.5935 47
126.6768 6
126.7601 42
126.8435 63
126.9268 50
127.0102 64
127.0935 33
127.1768 59
127.2602 61
127.3435 63
127.4269 74
127.5102 73
127.5935 78
127.6769 106
127.7602 110
127.8436 115
127.9269 114
128.0102 87
128.0936 169
128.1769 106
128.2603 63
128.3436 122
128.4269 109
128.5103 130
128.5936 217
128.6770 94
128.7603 65
128.8436 117
128.9270 85
129.0103 71
129.0937 55
129.1770 96
129.2603 57
129.3437 25
129.4270 20
129.5104 41
129.5937 22
129.6770 20
129.7604 24
129.8437 25
129.9271 50
130.0104 60
130.0937 67
130.1771 113
130.2604 74
130.3438 83
130.4271 114
130.5104 135
130.5938 121
130.6771 126
130.7605 133
130.8438 154
130.9271 151
131.0105 145
131.0938 164
131.1772 178
131.2605 146
131.3438 147
131.4272 153
131.5105 158
131.5939 183
131.6772 130
131.7605 89
131.8439 113
131.9272 89
132.0106 46
132.0939 59
132.1772 49
132.2606 55
132.3439 36
132.4273 33
132.5106 27
132.5939 18
132.6773 23
132.7606 33
132.8440 31
132.9273 63
133.0106 144
133.0940 118
133.1773 148
133.2607 144
133.3440 179
133.4273 192
133.5107 153
133.5940 220
133.6774 178
133.7607 202
133.8440 254
133.9274 169
134.0107 240
134.0941 204
134.1774 189
134.2607 209
134.3441 181
134.4274 128
134.5108 125
134.5941 91
134.6774 154
134.7608 119
134.8441 43
134.9275 53
135.0108 56
135.0941 33
135.1775 51
135.2608 45
135.3442 54
135.4275 59
135.5108 19
135.5942 16
135.6775 20
135.7609 36
135.8442 46
135.9275 48
136.0109 54
136.0942 62
136.1776 71
136.2609 64
136.3442 79
136.4276 124
136.5109 102
136.5943 111
136.6776 109
136.7609 104
136.8443 112
136.9276 137
137.0110 171
137.0943 149
137.1776 124
137.2610 146
137.3443 162
137.4277 136
137.5110 110
137.5943 94
137.6777 95
137.7610 88
137.8444 65
137.9277 54
138.0110 40
138.0944 49
138.1777 33
138.2611 39
138.3444 11
138.4277 55
138.5111 9
138.5944 24
138.6778 38
138.7611 26
138.8444 42
138.9278 46
139.0111 34
139.0945 33
139.1778 59
139.2611 75
139.3445 88
139.4278 87
139.5112 84
139.5945 73
139.6778 105
139.7612 122
139.8445 99
139.9279 101
140.0112 101
140.0945 66
140.1779 56
140.2612 84
140.3446 128
140.4279 67
140.5112 93
140.5946 54
140.6779 70
140.7613 51
140.8446 50
140.9279 33
141.0113 27
141.0946 17
141.1780 48
141.2613 28
141.3446 48
141.4280 27
141.5113 57
141.5947 50
141.6780 20
141.7613 28
141.8447 24
141.9280 46
142.0114 53
142.0947 33
142.1780 44
142.2614 46
142.3447 76
142.4281 51
142.5114 31
142.5947 39
142.6781 66
142.7614 72
142.8448 122
142.9281 119
143.0114 59
143.0948 36
143.1781 38
143.2615 55
143.3448 33
143.4281 32
143.5115 22
143.5948 47
143.6782 34
143.7615 54
143.8448 44
143.9282 46
144.0115 57
144.0949 111
144.1782 79
144.2615 78
144.3449 95
144.4282 58
144.5116 52
144.5949 92
144.6782 55
144.7616 94
144.8449 53
144.9283 139
145.0116 67
145.0949 85
145.1783 79
145.2616 90
145.3450 83
145.4283 92
145.5116 76
145.5950 92
145.6783 110
145.7617 64
145.8450 116
145.9283 139
146.0117 94
146.0950 64
146.1784 85
146.2617 38
146.3450 49
146.4284 95
146.5117 34
146.5951 52
146.6784 32
146.7617 28
146.8451 48
146.9284 49
147.0118 31
147.0951 30
147.1784 48
147.2618 32
147.3451 33
147.4285 92
147.5118 67
147.5951 83
147.6785 54
147.7618 116
147.8452 59
147.9285 107
148.0118 98
148.0952 120
148.1785 109
148.2619 177
148.3452 153
148.4285 163
148.5119 146
148.5952 159
148.6786 151
148.7619 150
148.8452 149
148.9286 183
149.0119 161
149.0953 144
149.1786 141
149.2619 139
149.3453 144
149.4286 87
149.5120 99
149.5953 69
149.6786 73
149.7620 62
149.8453 32
149.9287 68
150.0120 43
150.0953 51
150.1787 47
150.2620 71
150.3454 65
150.4287 71
150.5120 122
150.5954 107
150.6787 142
150.7621 174
150.8454 209
150.9287 196
151.0121 198
151.0954 248
151.1788 242
151.2621 317
151.3454 276
151.4288 321
151.5121 256
151.5955 262
151.6788 304
151.7621 222
151.8455 257
151.9288 234
152.0122 216
152.0955 226
152.1788 254
152.2622 200
152.3455 212
152.4289 121
152.5122 113
152.5955 74
152.6789 83
152.7622 125
152.8456 99
152.9289 51
153.0122 43
153.0956 110
153.1789 43
153.2623 46
153.3456 65
153.4289 88
153.5123 118
153.5956 165
153.6790 152
153.7623 209
153.8456 153
153.9290 214
154.0123 250
154.0957 215
154.1790 214
154.2623 249
154.3457 266
154.4290 281
154.5124 268
154.5957 278
154.6790 268
154.7624 240
154.8457 214
154.9291 185
155.0124 224
155.0957 175
155.1791 163
155.2624 165
155.3458 147
155.4291 75
155.5124 90
155.5958 73
155.6791 68
155.7625 63
155.8458 49
155.9291 43
156.0125 71
156.0958 37
156.1792 34
156.2625 70
156.3458 68
156.4292 97
156.5125 109
156.5959 123
156.6792 123
156.7625 157
156.8459 142
156.9292 148
157.0126 127
157.0959 143
157.1792 145
157.2626 158
157.3459 137
157.4293 152
157.5126 149
157.5959 134
157.6793 105
157.7626 133
157.8460 112
157.9293 122
158.0126 104
158.0960 64
158.1793 78
158.2627 74
158.3460 51
158.4293 52
158.5127 51
158.5960 39
158.6794 43
158.7627 25
158.8460 44
158.9294 34
159.0127 23
159.0961 46
159.1794 35
159.2627 57
159.3461 37
159.4294 43
159.5128 28
159.5961 32
159.6794 33
159.7628 49
159.8461 50
159.9295 51
160.0128 69
160.0961 54
160.1795 53
160.2628 41
160.3462 56
160.4295 72
160.5128 56
160.5962 64
160.6795 47
160.7629 39
160.8462 110
160.9295 115
161.0129 41
161.0962 41
161.1796 76
161.2629 60
161.3462 49
161.4296 32
161.5129 48
161.5963 37
161.6796 77
161.7629 38
161.8463 38
161.9296 18
162.0130 65
162.0963 47
162.1796 60
162.2630 36
162.3463 46
162.4297 81
162.5130 45
162.5963 33
162.6797 40
162.7630 34
162.8464 30
162.9297 47
163.0130 31
163.0964 34
163.1797 42
163.2631 86
163.3464 70
163.4297 52
163.5131 56
163.5964 35
163.6798 79
163.7631 23
163.8464 37
163.9298 37
164.0131 29
164.0965 34
164.1798 44
164.2631 21
164.3465 36
164.4298 43
164.5132 35
164.5965 43
164.6798 85
164.7632 66
164.8465 45
164.9299 99
165.0132 76
165.0965 70
165.1799 56
165.2632 89
165.3466 127
165.4299 109
165.5132 118
165.5966 116
165.6799 159
165.7633 104
165.8466 93
165.9299 108
166.0133 112
166.0966 109
166.1800 99
166.2633 105
166.3466 91
166.4300 98
166.5133 128
166.5967 84
166.6800 82
166.7633 68
166.8467 63
166.9300 97
167.0134 50
167.0967 50
167.1800 65
167.2634 42
167.3467 26
167.4301 50
167.5134 44
167.5967 64
167.6801 43
167.7634 62
167.8468 78
167.9301 105
168.0134 114
168.0968 117
168.1801 98
168.2635 116
168.3468 145
168.4301 156
168.5135 172
168.5968 171
168.6802 158
168.7635 167
168.8468 154
168.9302 171
169.0135 178
169.0969 171
169.1802 169
169.2635 133
169.3469 131
169.4302 123
169.5136 83
169.5969 85
169.6802 92
169.7636 83
169.8469 78
169.9303 69
170.0136 32
170.0969 36
170.1803 26
170.2636 58
170.3470 30
170.4303 60
170.5136 55
170.5970 57
170.6803 77
170.7637 78
170.8470 88
170.9303 98
171.0137 115
171.0970 135
171.1804 175
171.2637 161
171.3470 193
171.4304 188
171.5137 170
171.5971 159
171.6804 241
171.7637 212
171.8471 198
171.9304 139
172.0138 159
172.0971 142
172.1804 150
172.2638 134
172.3471 100
172.4305 92
172.5138 87
172.5971 117
172.6805 58
172.7638 43
172.8472 46
172.9305 30
173.0138 51
173.0972 36
173.1805 41
173.2639 50
173.3472 32
173.4305 48
173.5139 36
173.5972 41
173.6806 55
173.7639 68
173.8472 86
173.9306 66
174.0139 87
174.0973 64
174.1806 99
174.2639 91
174.3473 103
174.4306 76
174.5140 74
174.5973 98
174.6806 104
174.7640 81
174.8473 73
174.9307 76
175.0140 73
175.0973 65
175.1807 101
175.2640 64
175.3474 68
175.4307 48
175.5140 43
175.5974 43
175.6807 65
175.7641 56
175.8474 42
175.9307 30
176.0141 31
176.0974 32
176.1808 23
176.2641 30
176.3474 36
176.4308 37
176.5141 11
176.5975 26
176.6808 24
176.7641 33
176.8475 32
176.9308 66
177.0142 36
177.0975 45
177.1808 30
177.2642 41
177.3475 61
177.4309 19
177.5142 50
177.5975 43
177.6809 55
177.7642 62
177.8476 61
177.9309 51
178.0142 49
178.0976 52
178.1809 55
178.2643 42
178.3476 63
178.4309 33
178.5143 42
178.5976 24
178.6810 19
178.7643 21
178.8476 36
178.9310 46
179.0143 26
179.0977 20
179.1810 42
179.2643 46
179.3477 33
179.4310 47
179.5144 22
179.5977 67
179.6810 50
179.7644 57
179.8477 43
179.9311 27
180.0144 63
180.0977 44
180.1811 55
180.2644 56
180.3478 98
180.4311 98
180.5144 90
180.5978 105
180.6811 70
180.7645 98
180.8478 70
180.9311 100
181.0145 52
181.0978 48
181.1812 56
181.2645 24
181.3478 48
181.4312 34
181.5145 51
181.5979 28
181.6812 45
181.7645 62
181.8479 49
181.9312 57
182.0146 42
182.0979 59
182.1812 75
182.2646 79
182.3479 103
182.4313 105
182.5146 145
182.5979 130
182.6813 194
182.7646 216
182.8480 209
182.9313 198
183.0146 211
183.0980 238
183.1813 187
183.2647 244
183.3480 211
183.4313 177
183.5147 206
183.5980 181
183.6814 167
183.7647 169
183.8480 103
183.9314 130
184.0147 92
184.0981 116
184.1814 82
184.2647 78
184.3481 56
184.4314 48
184.5148 39
184.5981 53
184.6814 61
184.7648 38
184.8481 49
184.9315 68
185.0148 94
185.0981 90
185.1815 118
185.2648 168
185.3482 159
185.4315 178
185.5148 208
185.5982 253
185.6815 270
185.7649 287
185.8482 303
185.9315 280
186.0149 343
186.0982 308
186.1816 249
186.2649 312
186.3482 318
186.4316 249
186.5149 263
186.5983 189
186.6816 182
186.7649 140
186.8483 121
186.9316 105
187.0150 85
187.0983 74
187.1816 78
187.2650 46
187.3483 22
187.4317 44
187.5150 48
187.5983 53
187.6817 52
187.7650 70
187.8484 113
187.9317 95
188.0150 184
188.0984 189
188.1817 202
188.2651 239
188.3484 257
188.4317 275
188.5151 312
188.5984 285
188.6818 298
188.7651 293
188.8484 373
188.9318 354
189.0151 280
189.0985 259
189.1818 310
189.2651 306
189.3485 239
189.4318 234
189.5152 212
189.5985 167
189.6818 149
189.7652 141
189.8485 123
189.9319 76
190.0152 105
190.0985 46
190.1819 53
190.2652 32
190.3486 36
190.4319 39
190.5152 28
190.5986 36
190.6819 48
190.7653 59
190.8486 86
190.9319 100
191.0153 67
191.0986 100
191.1820 50
191.2653 115
191.3486 115
191.4320 116
191.5153 136
191.5987 156
191.6820 157
191.7653 158
191.8487 176
191.9320 121
192.0154 124
192.0987 134
192.1820 128
192.2654 95
192.3487 113
192.4321 79
192.5154 71
192.5987 52
192.6821 62
192.7654 43
192.8488 40
192.9321 57
193.0154 34
193.0988 20
193.1821 49
193.2655 23
193.3488 22
193.4321 14
193.5155 42
193.5988 18
193.6822 21
193.7655 36
193.8488 28
193.9322 48
194.0155 31
194.0989 39
194.1822 25
194.2655 52
194.3489 22
194.4322 27
194.5156 32
194.5989 38
194.6822 33
194.7656 16
194.8489 37
194.9323 7
195.0156 40
195.0989 51
195.1823 14
195.2656 35
195.3490 11
195.4323 25
195.5156 24
195.5990 15
195.6823 28
195.7657 15
195.8490 33
195.9323 17
196.0157 16
196.0990 34
196.1824 14
196.2657 37
196.3490 32
196.4324 44
196.5157 29
196.5991 54
196.6824 30
196.7657 49
196.8491 35
196.9324 49
197.0158 40
197.0991 59
197.1824 75
197.2658 64
197.3491 92
197.4325 75
197.5158 94
197.5991 73
197.6825 80
197.7658 88
197.8492 55
197.9325 107
198.0158 86
198.0992 75
198.1825 66
198.2659 49
198.3492 65
198.4325 42
198.5159 50
198.5992 48
198.6826 47
198.7659 31
198.8492 31
198.9326 59
199.0159 28
199.0993 61
199.1826 66
199.2659 53
199.3493 66
199.4326 128
199.5160 97
199.5993 164
199.6826 153
199.7660 171
199.8493 192
199.9327 193
200.0160 218
200.0993 293
200.1827 301
200.2660 315
200.3494 301
200.4327 332
200.5160 348
200.5994 306
200.6827 331
200.7661 304
200.8494 276
200.9327 311
201.0161 264
201.0994 206
201.1828 204
201.2661 198
201.3494 134
201.4328 111
201.5161 105
201.5995 60
201.6828 31
201.7661 37
201.8495 79
201.9328 50
202.0162 78
202.0995 104
202.1828 108
202.2662 136
202.3495 143
202.4329 248
202.5162 230
202.5995 324
202.6829 344
202.7662 341
202.8496 363
202.9329 395
203.0162 400
203.0996 430
203.1829 426
203.2663 461
203.3496 431
203.4329 482
203.5163 430
203.5996 400
203.6830 390
203.7663 348
203.8496 337
203.9330 298
204.0163 232
204.0997 187
204.1830 166
204.2663 122
204.3497 79
204.4330 89
204.5164 44
204.5997 57
204.6830 33
204.7664 56
204.8497 60
204.9331 113
205.0164 107
205.0997 156
205.1831 183
205.2664 260
205.3498 271
205.4331 330
205.5164 354
205.5998 344
205.6831 433
205.7665 478
205.8498 473
205.9331 452
206.0165 490
206.0998 464
206.1832 497
206.2665 480
206.3498 436
206.4332 407
206.5165 390
206.5999 334
206.6832 345
206.7665 271
206.8499 259
206.9332 186
207.0166 137
207.0999 113
207.1832 114
207.2666 95
207.3499 49
207.4333 64
207.5166 41
207.5999 54
207.6833 50
207.7666 106
207.8500 71
207.9333 116
208.0166 139
208.1000 199
208.1833 165
208.2667 215
208.3500 184
208.4333 311
208.5167 267
208.6000 318
208.6834 239
208.7667 299
208.8500 299
208.9334 272
209.0167 243
209.1001 257
209.1834 226
209.2667 200
209.3501 184
209.4334 187
209.5168 139
209.6001 107
209.6834 111
209.7668 56
209.8501 68
209.9335 33
210.0168 33
210.1001 57
210.1835 36
210.2668 20
210.3502 30
210.4335 41
210.5168 23
210.6002 38
210.6835 33
210.7669 77
210.8502 75
210.9335 39
211.0169 50
211.1002 49
211.1836 42
211.2669 38
211.3502 56
211.4336 51
211.5169 57
211.6003 39
211.6836 31
211.7669 44
211.8503 45
211.9336 26
212.0170 34
212.1003 19
212.1836 23
212.2670 39
212.3503 9
212.4337 8
212.5170 7
212.6003 35
212.6837 14
212.7670 30
212.8504 18
212.9337 11
213.0170 12
213.1004 21
213.1837 12
213.2671 22
213.3504 27
213.4337 23
213.5171 7
213.6004 37
213.6838 32
213.7671 15
213.8504 26
213.9338 38
214.0171 70
214.1005 60
214.1838 82
214.2671 77
214.3505 83
214.4338 87
214.5172 91
214.6005 124
214.6838 118
214.7672 117
214.8505 115
214.9339 125
215.0172 134
215.1005 145
215.1839 136
215.2672 134
215.3506 124
215.4339 152
215.5172 122
215.6006 86
215.6839 79
215.7673 80
215.8506 72
215.9339 57
216.0173 50
216.1006 36
216.1840 59
216.2673 44
216.3506 89
216.4340 89
216.5173 119
216.6007 131
216.6840 178
216.7673 198
216.8507 250
216.9340 288
217.0174 323
217.1007 406
217.1840 342
217.2674 434
217.3507 390
217.4341 463
217.5174 477
217.6007 507
217.6841 499
217.7674 471
217.8508 406
217.9341 409
218.0174 386
218.1008 369
218.1841 308
218.2675 315
218.3508 272
218.4341 204
218.5175 169
218.6008 142
218.6842 79
218.7675 88
218.8508 76
218.9342 65
219.0175 56
219.1009 56
219.1842 99
219.2675 104
219.3509 169
219.4342 182
219.5176 262
219.6009 310
219.6842 357
219.7676 427
219.8509 520
219.9343 561
220.0176 602
220.1009 683
220.1843 697
220.2676 793
220.3510 759
220.4343 751
220.5176 770
220.6010 745
220.6843 803
220.7677 676
220.8510 607
220.9343 632
221.0177 465
221.1010 439
221.1844 332
221.2677 341
221.3510 278
221.4344 238
221.5177 183
221.6011 108
221.6844 96
221.7677 59
221.8511 67
221.9344 85
222.0178 114
222.1011 193
222.1844 231
222.2678 285
222.3511 341
222.4345 422
222.5178 500
222.6011 602
222.6845 564
222.7678 731
222.8512 765
222.9345 801
223.0178 846
223.1012 747
223.1845 826
223.2679 854
223.3512 790
223.4345 853
223.5179 697
223.6012 748
223.6846 600
223.7679 585
223.8512 511
223.9346 380
224.0179 274
224.1013 194
224.1846 216
224.2679 138
224.3513 118
224.4346 103
224.5180 72
224.6013 52
224.6846 40
224.7680 74
224.8513 66
224.9347 101
225.0180 150
225.1013 147
225.1847 182
225.2680 248
225.3514 308
225.4347 301
225.5180 307
225.6014 393
225.6847 369
225.7681 501
225.8514 421
225.9347 524
226.0181 423
226.1014 457
226.1848 422
226.2681 360
226.3514 279
226.4348 335
226.5181 284
226.6015 251
226.6848 230
226.7681 161
226.8515 172
226.9348 102
227.0182 101
227.1015 79
227.1848 58
227.2682 38
227.3515 55
227.4349 42
227.5182 28
227.6015 33
227.6849 18
227.7682 35
227.8516 62
227.9349 29
228.0182 51
228.1016 37
228.1849 62
228.2683 39
228.3516 60
228.4349 85
228.5183 57
228.6016 73
228.6850 64
228.7683 75
228.8516 63
228.9350 74
229.0183 37
229.1017 36
229.1850 49
229.2683 41
229.3517 38
229.4350 36
229.5184 30
229.6017 25
229.6850 36
229.7684 36
229.8517 46
229.9351 33
230.0184 28
230.1017 29
230.1851 48
230.2684 42
230.3518 60
230.4351 35
230.5184 47
230.6018 54
230.6851 55
230.7685 49
230.8518 103
230.9351 93
231.0185 96
231.1018 76
231.1852 86
231.2685 105
231.3518 83
231.4352 111
231.5185 120
231.6019 120
231.6852 156
231.7685 145
231.8519 145
231.9352 140
232.0186 146
232.1019 165
232.1852 152
232.2686 161
232.3519 108
232.4353 125
232.5186 128
232.6019 113
232.6853 119
232.7686 108
232.8520 99
232.9353 121
233.0186 164
233.1020 105
233.1853 140
233.2687 124
233.3520 137
233.4353 190
233.5187 252
233.6020 253
233.6854 294
233.7687 279
233.8520 429
233.9354 412
234.0187 570
234.1021 629
234.1854 551
234.2687 656
234.3521 669
234.4354 663
234.5188 787
234.6021 769
234.6854 731
234.7688 741
234.8521 751
234.9355 704
235.0188 658
235.1021 558
235.1855 619
235.2688 511
235.3522 469
235.4355 394
235.5188 335
235.6022 248
235.6855 257
235.7689 238
235.8522 224
235.9355 218
236.0189 206
236.1022 238
236.1856 290
236.2689 338
236.3522 353
236.4356 485
236.5189 525
236.6023 631
236.6856 749
236.7689 867
236.8523 1066
236.9356 1031
237.0190 1145
237.1023 1147
237.1856 1234
237.2690 1341
237.3523 1376
237.4357 1302
237.5190 1368
237.6023 1277
237.6857 1338
237.7690 1164
237.8524 1111
237.9357 1006
238.0190 945
238.1024 799
238.1857 683
238.2691 588
238.3524 474
238.4357 396
238.5191 325
238.6024 270
238.6858 240
238.7691 151
238.8524 186
238.9358 216
239.0191 266
239.1025 305
239.1858 411
239.2691 435
239.3525 527
239.4358 684
239.5192 726
239.6025 860
239.6858 1045
239.7692 1160
239.8525 1228
239.9359 1271
240.0192 1420
240.1025 1404
240.1859 1449
240.2692 1372
240.3526 1418
240.4359 1245
240.5192 1295
240.6026 1197
240.6859 1073
240.7693 1053
240.8526 851
240.9359 725
241.0193 664
241.1026 600
241.1860 473
241.2693 374
241.3526 288
241.4360 242
241.5193 181
241.6027 137
241.6860 171
241.7693 173
241.8527 237
241.9360 261
242.0194 345
242.1027 463
242.1860 411
242.2694 580
242.3527 709
242.4361 807
242.5194 857
242.6027 959
242.6861 912
242.7694 996
242.8528 1033
242.9361 967
243.0194 1086
243.1028 892
243.1861 967
243.2695 855
243.3528 784
243.4361 777
243.5195 590
243.6028 525
243.6862 465
243.7695 422
243.8528 296
243.9362 236
244.0195 220
244.1029 150
244.1862 95
244.2695 88
244.3529 76
244.4362 69
244.5196 108
244.6029 87
244.6862 109
244.7696 114
244.8529 167
244.9363 125
245.0196 165
245.1029 211
245.1863 208
245.2696 226
245.3530 217
245.4363 219
245.5196 237
245.6030 223
245.6863 207
245.7697 228
245.8530 170
245.9363 156
246.0197 137
246.1030 112
246.1864 111
246.2697 95
246.3530 89
246.4364 67
246.5197 48
246.6031 47
246.6864 21
246.7697 24
246.8531 26
246.9364 20
247.0198 37
247.1031 10
247.1864 28
247.2698 16
247.3531 29
247.4365 13
247.5198 27
247.6031 24
247.6865 16
247.7698 54
247.8532 12
247.9365 22
248.0198 10
248.1032 41
248.1865 37
248.2699 53
248.3532 75
248.4365 64
248.5199 73
248.6032 136
248.6866 94
248.7699 122
248.8532 144
248.9366 99
249.0199 172
249.1033 120
249.1866 200
249.2699 146
249.3533 188
249.4366 117
249.5200 134
249.6033 141
249.6866 109
249.7700 104
249.8533 140
249.9367 108
250.0200 73
250.1033 91
250.1867 110
250.2700 129
250.3534 129
250.4367 181
250.5200 224
250.6034 246
250.6867 338
250.7701 379
250.8534 430
250.9367 513
251.0201 636
251.1034 666
251.1868 825
251.2701 840
251.3534 978
251.4368 990
251.5201 1040
251.6035 1141
251.6868 1118
251.7701 1201
251.8535 1087
251.9368 1117
252.0202 1081
252.1035 938
252.1868 932
252.2702 804
252.3535 746
252.4369 706
252.5202 571
252.6035 564
252.6869 421
252.7702 330
252.8536 329
252.9369 292
253.0202 315
253.1036 340
253.1869 481
253.2703 534
253.3536 673
253.4369 798
253.5203 994
253.6036 1189
253.6870 1508
253.7703 1677
253.8536 1690
253.9370 1934
254.0203 2079
254.1037 2242
254.1870 2445
254.2703 2577
254.3537 2552
254.4370 2498
254.5204 2406
254.6037 2404
254.6870 2302
254.7704 2208
254.8537 2035
254.9371 1956
255.0204 1734
255.1037 1380
255.1871 1300
255.2704 1077
255.3538 883
255.4371 756
255.5204 593
255.6038 518
255.6871 463
255.7705 390
255.8538 468
255.9371 491
256.0205 635
256.1038 877
256.1872 984
256.2705 1247
256.3538 1420
256.4372 1738
256.5205 1936
256.6039 2192
256.6872 2579
256.7705 2829
256.8539 3020
256.9372 3077
257.0206 3186
257.1039 3203
257.1872 3129
257.2706 3310
257.3539 3240
257.4373 2871
257.5206 2879
257.6039 2566
257.6873 2322
257.7706 2187
257.8540 1955
257.9373 1678
258.0206 1392
258.1040 1076
258.1873 910
258.2707 761
258.3540 563
258.4373 371
258.5207 390
258.6040 346
258.6874 385
258.7707 419
258.8540 497
258.9374 638
259.0207 727
259.1041 896
259.1874 999
259.2707 1301
259.3541 1537
259.4374 1611
259.5208 1731
259.6041 1974
259.6874 2157
259.7708 2225
259.8541 2131
259.9375 2207
260.0208 2237
260.1041 2116
260.1875 2040
260.2708 1895
260.3542 1779
260.4375 1558
260.5208 1405
260.6042 1257
260.6875 1037
260.7709 911
260.8542 777
260.9375 593
261.0209 498
261.1042 381
261.1876 303
261.2709 198
261.3542 160
261.4376 155
261.5209 130
261.6043 166
261.6876 151
261.7709 181
261.8543 286
261.9376 292
262.0210 337
262.1043 433
262.1876 405
262.2710 521
262.3543 460
262.4377 566
262.5210 503
262.6043 505
262.6877 461
262.7710 434
262.8544 386
262.9377 359
263.0210 370
263.1044 286
263.1877 277
263.2711 209
263.3544 203
263.4377 185
263.5211 108
263.6044 124
263.6878 76
263.7711 62
263.8544 47
263.9378 48
264.0211 54
264.1045 31
264.1878 54
264.2711 31
264.3545 33
264.4378 33
264.5212 37
264.6045 20
264.6878 30
264.7712 19
264.8545 37
264.9379 35
265.0212 63
265.1045 62
265.1879 93
265.2712 123
265.3546 106
265.4379 137
265.5212 200
265.6046 206
265.6879 252
265.7713 279
265.8546 298
265.9379 381
266.0213 336
266.1046 367
266.1880 409
266.2713 357
266.3546 322
266.4380 342
266.5213 267
266.6047 308
266.6880 251
266.7713 233
266.8547 235
266.9380 160
267.0214 190
267.1047 175
267.1880 226
267.2714 238
267.3547 342
267.4381 450
267.5214 533
267.6047 721
267.6881 910
267.7714 1103
267.8548 1345
267.9381 1512
268.0214 1720
268.1048 1943
268.1881 2096
268.2715 2484
268.3548 2537
268.4381 2700
268.5215 2845
268.6048 2803
268.6882 2911
268.7715 2877
268.8548 2883
268.9382 2727
269.0215 2414
269.1049 2442
269.1882 2010
269.2715 1825
269.3549 1553
269.4382 1258
269.5216 1036
269.6049 910
269.6882 681
269.7716 584
269.8549 574
269.9383 667
270.0216 690
270.1049 922
270.1883 1267
270.2716 1715
270.3550 1889
270.4383 2579
270.5216 3110
270.6050 3666
270.6883 4320
270.7717 5051
270.8550 5670
270.9383 6059
271.0217 6634
271.1050 7071
271.1884 7405
271.2717 7603
271.3550 7608
271.4384 7627
271.5217 7494
271.6051 7338
271.6884 6849
271.7717 6396
271.8551 6078
271.9384 5163
272.0218 4576
272.1051 3887
272.1884 3340
272.2718 2557
272.3551 2180
272.4385 1596
272.5218 1302
272.6051 1151
272.6885 986
272.7718 1001
272.8552 1274
272.9385 1656
273.0218 2058
273.1052 2641
273.1885 3401
273.2719 4366
273.3552 5042
273.4385 6076
273.5219 6825
273.6052 7816
273.6886 8543
273.7719 9044
273.8552 9652
273.9386 10486
274.0219 10295
274.1053 10454
274.1886 10713
274.2719 10584
274.3553 9887
274.4386 9408
274.5220 8707
274.6053 8097
274.6886 7162
274.7720 6261
274.8553 5294
274.9387 4555
275.0220 3503
275.1053 2912
275.1887 2248
275.2720 1660
275.3554 1252
275.4387 1013
275.5220 917
275.6054 865
275.6887 1131
275.7721 1431
275.8554 1796
275.9387 2485
276.0221 3091
276.1054 3779
276.1888 4500
276.2721 5141
276.3554 5900
276.4388 6480
276.5221 7160
276.6055 7573
276.6888 7870
276.7721 8188
276.8555 7958
276.9388 7983
277.0222 7629
277.1055 7392
277.1888 6829
277.2722 6557
277.3555 6044
277.4389 5327
277.5222 4815
277.6055 4009
277.6889 3385
277.7722 2684
277.8556 2184
277.9389 1605
278.0222 1281
278.1056 883
278.1889 626
278.2723 493
278.3556 429
278.4389 359
278.5223 445
278.6056 581
278.6890 723
278.7723 1005
278.8556 1243
278.9390 1527
279.0223 1726
279.1057 1930
279.1890 2160
279.2723 2260
279.3557 2339
279.4390 2433
279.5224 2573
279.6057 2577
279.6890 2369
279.7724 2295
279.8557 2140
279.9391 2117
280.0224 1809
280.1057 1443
280.1891 1307
280.2724 1122
280.3558 934
280.4391 730
280.5224 605
280.6058 411
280.6891 409
280.7725 251
280.8558 156
280.9391 139
281.0225 76
281.1058 70
281.1892 86
281.2725 43
281.3558 57
281.4392 57
281.5225 49
281.6059 43
281.6892 72
281.7725 43
281.8559 89
281.9392 59
282.0226 134
282.1059 200
282.1892 200
282.2726 307
282.3559 272
282.4393 360
282.5226 468
282.6059 571
282.6893 659
282.7726 714
282.8560 734
282.9393 979
283.0226 855
283.1060 888
283.1893 803
283.2727 774
283.3560 723
283.4393 670
283.5227 603
283.6060 469
283.6894 361
283.7727 342
283.8560 323
283.9394 290
284.0227 402
284.1061 555
284.1894 875
284.2727 1134
284.3561 1553
284.4394 2298
284.5228 2910
284.6061 3840
284.6894 4708
284.7728 5680
284.8561 6535
284.9395 7836
285.0228 8911
285.1061 9908
285.1895 10823
285.2728 11595
285.3562 12418
285.4395 12858
285.5228 13055
285.6062 13214
285.6895 12943
285.7729 12563
285.8562 12224
285.9395 10889
286.0229 10065
286.1062 8905
286.1896 7740
286.2729 6307
286.3562 4966
286.4396 4056
286.5229 3028
286.6063 2209
286.6896 1597
286.7729 1490
286.8563 1761
286.9396 2443
287.0230 3542
287.1063 5340
287.1896 7192
287.2730 9631
287.3563 12583
287.4397 16073
287.5230 19219
287.6063 23441
287.6897 26647
287.7730 30693
287.8564 34022
287.9397 36862
288.0230 39634
288.1064 42326
288.1897 43608
288.2731 44881
288.3564 43803
288.4397 44095
288.5231 41875
288.6064 39300
288.6898 36762
288.7731 33026
288.8564 29512
288.9398 25485
289.0231 21048
289.1065 17417
289.1898 13525
289.2731 10323
289.3565 7797
289.4398 5299
289.5232 4163
289.6065 3707
289.6898 4354
289.7732 5758
289.8565 8422
289.9399 12231
290.0232 17660
290.1065 23004
290.1899 29838
290.2732 36702
290.3566 44200
290.4399 51906
290.5232 60416
290.6066 68024
290.6899 73849
290.7733 79568
290.8566 84226
290.9399 88185
291.0233 89533
291.1066 90234
291.1900 88648
291.2733 86365
291.3566 81312
291.4400 76549
291.5233 69929
291.6067 62397
291.6900 54588
291.7733 46680
291.8567 38947
291.9400 31010
292.0234 24279
292.1067 17597
292.1900 12644
292.2734 9073
292.3567 6791
292.4401 6465
292.5234 7726
292.6067 10832
292.6901 16096
292.7734 22836
292.8568 31434
292.9401 41731
293.0234 52894
293.1068 65275
293.1901 78050
293.2735 90448
293.3568 101230
293.4401 113069
293.5235 122640
293.6068 131654
293.6902 136308
293.7735 138889
293.8568 141500
293.9402 139848
294.0235 136556
294.1069 130784
294.1902 121850
294.2735 113547
294.3569 103484
294.4402 90571
294.5236 79012
294.6069 65854
294.6902 54868
294.7736 42332
294.8569 32836
294.9403 24053
295.0236 17024
295.1069 12319
295.1903 9290
295.2736 8832
295.3570 10717
295.4403 15488
295.5236 22533
295.6070 32073
295.6903 44653
295.7737 58547
295.8570 73668
295.9403 91240
296.0237 108585
296.1070 124503
296.1904 139459
296.2737 153006
296.3570 162845
296.4404 173841
296.5237 178588
296.6071 182010
296.6904 181507
296.7737 178926
296.8571 172463
296.9404 163777
297.0238 152701
297.1071 138568
297.1904 123548
297.2738 107718
297.3571 91375
297.4405 76179
297.5238 61657
297.6071 48291
297.6905 35725
297.7738 25800
297.8572 17614
297.9405 12763
298.0238 9862
298.1072 10023
298.1905 13049
298.2739 19145
298.3572 27978
298.4405 38967
298.5239 53736
298.6072 70977
298.6906 88323
298.7739 108029
298.8572 124946
298.9406 142672
299.0239 158600
299.1073 172309
299.1906 182832
299.2739 191146
299.3573 195357
299.4406 197852
299.5240 194988
299.6073 189162
299.6906 180821
299.7740 168299
299.8573 154732
299.9407 141289
300.0240 123741
300.1073 106239
300.1907 90252
300.2740 73136
300.3574 57836
300.4407 43701
300.5240 32461
300.6074 22526
300.6907 15622
300.7741 10842
300.8574 9203
300.9407 9813
301.0241 13674
301.1074 20499
301.1908 28890
301.2741 40821
301.3574 54708
301.4408 70734
301.5241 86802
301.6075 103683
301.6908 120920
301.7741 136231
301.8575 150489
301.9408 160553
302.0242 168758
302.1075 175947
302.1908 177047
302.2742 177722
302.3575 172255
302.4409 166474
302.5242 157304
302.6075 146458
302.6909 133019
302.7742 119703
302.8576 104691
302.9409 90844
303.0242 75422
303.1076 61428
303.1909 47923
303.2743 36160
303.3576 26289
303.4409 17554
303.5243 12048
303.6076 7950
303.6910 7091
303.7743 8101
303.8576 10773
303.9410 15608
304.0243 23406
304.1077 32664
304.1910 42825
304.2743 54990
304.3577 67279
304.4410 79850
304.5244 92242
304.6077 102415
304.6910 112367
304.7744 120301
304.8577 125896
304.9411 128736
305.0244 129160
305.1077 128292
305.1911 126461
305.2744 119554
305.3578 113155
305.4411 102743
305.5244 94159
305.6078 84714
305.6911 73355
305.7745 61849
305.8578 51095
305.9411 40802
306.0245 31967
306.1078 23747
306.1912 16791
306.2745 11501
306.3578 7209
306.4412 5144
306.5245 4149
306.6079 4783
306.6912 6793
306.7745 10579
306.8579 15164
306.9412 20992
307.0246 27323
307.1079 33832
307.1912 41852
307.2746 48600
307.3579 55515
307.4413 61839
307.5246 66675
307.6079 71041
307.6913 73771
307.7746 73790
307.8580 75175
307.9413 73526
308.0246 70126
308.1080 66671
308.1913 61519
308.2747 57136
308.3580 50960
308.4413 44765
308.5247 38699
308.6080 32438
308.6914 26337
308.7747 20999
308.8580 15824
308.9414 11435
309.0247 8120
309.1081 4967
309.1914 3079
309.2747 1976
309.3581 1869
309.4414 2319
309.5248 3377
309.6081 5472
309.6914 7543
309.7748 10520
309.8581 13230
309.9415 16041
310.0248 19366
310.1081 22157
310.1915 24922
310.2748 26884
310.3582 29085
310.4415 30385
310.5248 30959
310.6082 31099
310.6915 30706
310.7749 29938
310.8582 28203
310.9415 26265
311.0249 23642
311.1082 21524
311.1916 18761
311.2749 16584
311.3582 13466
311.4416 10981
311.5249 8549
311.6083 6219
311.6916 4935
311.7749 3309
311.8583 2017
311.9416 1189
312.0250 697
312.1083 481
312.1916 505
312.2750 770
312.3583 1224
312.4417 1931
312.5250 2646
312.6083 3403
312.6917 4280
312.7750 5207
312.8584 5827
312.9417 6555
313.0250 6947
313.1084 7370
313.1917 7634
313.2751 7449
313.3584 7327
313.4417 6997
313.5251 6674
313.6084 6199
313.6918 5794
313.7751 5120
313.8584 4453
313.9418 3672
314.0251 3036
314.1085 2429
314.1918 1884
314.2751 1438
314.3585 952
314.4418 670
314.5252 414
314.6085 200
314.6918 103
314.7752 67
314.8585 99
314.9419 101
315.0252 156
315.1085 228
315.1919 338
315.2752 367
315.3586 518
315.4419 526
315.5252 579
315.6086 602
315.6919 639
315.7753 519
315.8586 474
315.9419 474
316.0253 371
316.1086 322
316.1920 213
316.2753 167
316.3586 144
316.4420 84
316.5253 75
316.6087 92
316.6920 81
316.7753 107
316.8587 139
316.9420 208
317.0254 233
317.1087 312
317.1920 333
317.2754 367
317.3587 421
317.4421 451
317.5254 373
317.6087 410
317.6921 400
317.7754 344
317.8588 390
317.9421 363
318.0254 328
318.1088 397
318.1921 457
318.2755 503
318.3588 548
318.4421 678
318.5255 853
318.6088 982
318.6922 1291
318.7755 1465
318.8588 1674
318.9422 1867
319.0255 2123
319.1089 2363
319.1922 2701
319.2755 2796
319.3589 2933
319.4422 3076
319.5256 3202
319.6089 2973
319.6922 3131
319.7756 3108
319.8589 2746
319.9423 2617
320.0256 2263
320.1089 1985
320.1923 1705
320.2756 1459
320.3590 1122
320.4423 1045
320.5256 780
320.6090 724
320.6923 612
320.7757 677
320.8590 722
320.9423 863
321.0257 1217
321.1090 1696
321.1924 2018
321.2757 2475
321.3590 3091
321.4424 3485
321.5257 4076
321.6091 4700
321.6924 5245
321.7757 5549
321.8591 6038
321.9424 6238
322.0258 6483
322.1091 6514
322.1924 6743
322.2758 6588
322.3591 6465
322.4425 6129
322.5258 5575
322.6091 5165
322.6925 4694
322.7758 4181
322.8592 3427
322.9425 2848
323.0258 2260
323.1092 1807
323.1925 1315
323.2759 1048
323.3592 754
323.4425 707
323.5259 652
323.6092 817
323.6926 990
323.7759 1182
323.8592 1736
323.9426 2190
324.0259 2737
324.1093 3512
324.1926 3884
324.2759 4640
324.3593 5531
324.4426 5929
324.5260 6592
324.6093 6748
324.6926 7235
324.7760 7189
324.8593 7381
324.9427 7186
325.0260 7279
325.1093 6721
325.1927 6486
325.2760 5996
325.3594 5458
325.4427 5090
325.5260 4271
325.6094 3617
325.6927 2925
325.7761 2410
325.8594 1892
325.9427 1436
326.0261 994
326.1094 716
326.1928 504
326.2761 429
326.3594 401
326.4428 577
326.5261 758
326.6095 1038
326.6928 1384
326.7761 1762
326.8595 2405
326.9428 2668
327.0262 3106
327.1095 3518
327.1928 4063
327.2762 4419
327.3595 4488
327.4429 4950
327.5262 4949
327.6095 5163
327.6929 4807
327.7762 4680
327.8596 4656
327.9429 4446
328.0262 4125
328.1096 3764
328.1929 3405
328.2763 2742
328.3596 2523
328.4429 2176
328.5263 1621
328.6096 1342
328.6930 957
328.7763 754
328.8596 474
328.9430 285
329.0263 162
329.1097 167
329.1930 170
329.2763 236
329.3597 387
329.4430 480
329.5264 577
329.6097 701
329.6930 942
329.7764 1184
329.8597 1222
329.9431 1320
330.0264 1584
330.1097 1925
330.1931 1952
330.2764 1724
330.3598 1974
330.4431 1728
330.5264 1805
330.6098 1659
330.6931 1445
330.7765 1360
330.8598 1196
330.9431 1211
331.0265 1013
331.1098 798
331.1932 644
331.2765 546
331.3598 372
331.4432 311
331.5265 209
331.6099 177
331.6932 126
331.7765 47
331.8599 37
331.9432 12
332.0266 13
332.1099 22
332.1932 31
332.2766 58
332.3599 104
332.4433 71
332.5266 104
332.6099 89
332.6933 87
332.7766 119
332.8600 89
332.9433 119
333.0266 99
333.1100 129
333.1933 74
333.2767 71
333.3600 52
333.4433 45
333.5267 23
333.6100 23
333.6934 25
333.7767 15
333.8600 25
333.9434 30
334.0267 46
334.1101 43
334.1934 40
334.2767 60
334.3601 57
334.4434 45
334.5268 35
334.6101 50
334.6934 66
334.7768 76
334.8601 93
334.9435 108
335.0268 113
335.1101 137
335.1935 197
335.2768 199
335.3602 274
335.4435 310
335.5268 329
335.6102 378
335.6935 392
335.7769 476
335.8602 527
335.9435 632
336.0269 621
336.1102 654
336.1936 718
336.2769 728
336.3602 770
336.4436 737
336.5269 667
336.6103 670
336.6936 703
336.7769 657
336.8603 577
336.9436 468
337.0270 409
337.1103 353
337.1936 230
337.2770 241
337.3603 160
337.4437 127
337.5270 98
337.6103 146
337.6937 188
337.7770 255
337.8604 360
337.9437 426
338.0270 514
338.1104 753
338.1937 897
338.2771 1034
338.3604 1260
338.4437 1482
338.5271 1598
338.6104 1799
338.6938 1986
338.7771 1985
338.8604 2022
338.9438 2226
339.0271 2154
339.1105 2133
339.1938 2122
339.2771 2096
339.3605 1950
339.4438 1894
339.5272 1740
339.6105 1457
339.6938 1303
339.7772 1084
339.8605 909
339.9439 626
340.0272 523
340.1105 357
340.1939 224
340.2772 140
340.3606 112
340.4439 143
340.5272 229
340.6106 284
340.6939 402
340.7773 580
340.8606 804
340.9439 974
341.0273 1223
341.1106 1520
341.1940 1690
341.2773 1988
341.3606 2177
341.4440 2404
341.5273 2529
341.6107 2647
341.6940 2683
341.7773 2882
341.8607 2808
341.9440 2561
342.0274 2661
342.1107 2390
342.1940 2116
342.2774 2022
342.3607 1803
342.4441 1642
342.5274 1274
342.6107 1091
342.6941 860
342.7774 643
342.8608 479
342.9441 293
343.0274 244
343.1108 142
343.1941 89
343.2775 99
343.3608 133
343.4441 204
343.5275 294
343.6108 535
343.6942 627
343.7775 868
343.8608 1012
343.9442 1223
344.0275 1377
344.1109 1527
344.1942 1811
344.2775 1952
344.3609 1908
344.4442 2034
344.5276 2044
344.6109 1981
344.6942 2022
344.7776 1898
344.8609 1701
344.9443 1691
345.0276 1523
345.1109 1376
345.1943 1091
345.2776 1026
345.3610 800
345.4443 663
345.5276 492
345.6110 408
345.6943 252
345.7777 232
345.8610 98
345.9443 63
346.0277 37
346.1110 29
346.1944 65
346.2777 93
346.3610 141
346.4444 249
346.5277 309
346.6111 395
346.6944 434
346.7777 520
346.8611 598
346.9444 652
347.0278 697
347.1111 751
347.1944 772
347.2778 757
347.3611 793
347.4445 762
347.5278 797
347.6111 725
347.6945 584
347.7778 660
347.8612 509
347.9445 491
348.0278 441
348.1112 345
348.1945 332
348.2779 224
348.3612 221
348.4445 140
348.5279 118
348.6112 82
348.6946 48
348.7779 36
348.8612 27
348.9446 26
349.0279 21
349.1113 35
349.1946 26
349.2779 67
349.3613 34
349.4446 43
349.5280 52
349.6113 53
349.6946 96
349.7780 70
349.8613 64
349.9447 60
350.0280 73
350.1113 63
350.1947 68
350.2780 45
350.3614 47
350.4447 60
350.5280 39
350.6114 11
350.6947 18
350.7781 9
350.8614 19
350.9447 4
351.0281 23
351.1114 19
351.1948 26
351.2781 38
351.3614 21
351.4448 26
351.5281 51
351.6115 45
351.6948 29
351.7781 46
351.8615 50
351.9448 69
352.0282 74
352.1115 59
352.1948 82
352.2782 106
352.3615 106
352.4449 115
352.5282 166
352.6115 143
352.6949 169
352.7782 202
352.8616 250
352.9449 266
353.0282 241
353.1116 270
353.1949 281
353.2783 281
353.3616 259
353.4449 246
353.5283 309
353.6116 207
353.6950 225
353.7783 199
353.8616 182
353.9450 177
354.0283 137
354.1117 139
354.1950 89
354.2783 73
354.3617 79
354.4450 60
354.5284 59
354.6117 81
354.6950 76
354.7784 125
354.8617 175
354.9451 191
355.0284 204
355.1117 339
355.1951 339
355.2784 403
355.3618 526
355.4451 568
355.5284 652
355.6118 713
355.6951 806
355.7785 768
355.8618 843
355.9451 850
356.0285 904
356.1118 934
356.1952 808
356.2785 857
356.3618 791
356.4452 703
356.5285 747
356.6119 629
356.6952 531
356.7785 435
356.8619 389
356.9452 286
357.0286 245
357.1119 171
357.1952 137
357.2786 117
357.3619 61
357.4453 68
357.5286 100
357.6119 118
357.6953 171
357.7786 286
357.8620 352
357.9453 376
358.0286 513
358.1120 623
358.1953 754
358.2787 787
358.3620 979
358.4453 985
358.5287 1039
358.6120 1115
358.6954 1195
358.7787 1189
358.8620 1221
358.9454 1218
359.0287 1153
359.1121 1146
359.1954 1070
359.2787 911
359.3621 913
359.4454 812
359.5288 801
359.6121 644
359.6954 554
359.7788 384
359.8621 296
359.9455 189
360.0288 136
360.1121 111
360.1955 79
360.2788 110
360.3622 110
360.4455 189
360.5288 203
360.6122 307
360.6955 395
360.7789 514
360.8622 562
360.9455 738
361.0289 941
361.1122 1096
361.1956 1035
361.2789 1089
361.3622 1278
361.4456 1277
361.5289 1352
361.6123 1372
361.6956 1295
361.7789 1250
361.8623 1197
361.9456 1121
362.0290 964
362.1123 901
362.1956 810
362.2790 709
362.3623 555
362.4457 468
362.5290 426
362.6123 259
362.6957 231
362.7790 115
362.8624 89
362.9457 71
363.0290 57
363.1124 83
363.1957 78
363.2791 116
363.3624 189
363.4457 224
363.5291 300
363.6124 316
363.6958 337
363.7791 479
363.8624 506
363.9458 529
364.0291 570
364.1125 594
364.1958 651
364.2791 668
364.3625 635
364.4458 666
364.5292 651
364.6125 586
364.6958 526
364.7792 441
364.8625 449
364.9459 373
365.0292 292
365.1125 244
365.1959 183
365.2792 143
365.3626 124
365.4459 89
365.5292 61
365.6126 28
365.6959 35
365.7793 27
365.8626 17
365.9459 33
366.0293 33
366.1126 36
366.1960 59
366.2793 61
366.3626 100
366.4460 109
366.5293 95
366.6127 100
366.6960 111
366.7793 126
366.8627 94
366.9460 147
367.0294 116
367.1127 114
367.1960 73
367.2794 98
367.3627 84
367.4461 71
367.5294 70
367.6127 40
367.6961 53
367.7794 37
367.8628 38
367.9461 17
368.0294 8
368.1128 14
368.1961 15
368.2795 13
368.3628 32
368.4461 36
368.5295 28
368.6128 32
368.6962 28
368.7795 56
368.8628 45
368.9462 46
369.0295 56
369.1129 68
369.1962 50
369.2795 55
369.3629 69
369.4462 81
369.5296 64
369.6129 68
369.6962 70
369.7796 121
369.8629 82
369.9463 99
370.0296 155
370.1129 121
370.1963 91
370.2796 123
370.3630 110
370.4463 134
370.5296 140
370.6130 115
370.6963 133
370.7797 107
370.8630 111
370.9463 92
371.0297 102
371.1130 60
371.1964 58
371.2797 95
371.3630 49
371.4464 87
371.5297 79
371.6131 73
371.6964 65
371.7797 70
371.8631 147
371.9464 161
372.0298 155
372.1131 172
372.1964 231
372.2798 258
372.3631 304
372.4465 288
372.5298 327
372.6131 322
372.6965 353
372.7798 365
372.8632 439
372.9465 416
373.0298 492
373.1132 409
373.1965 418
373.2799 315
373.3632 359
373.4465 346
373.5299 282
373.6132 280
373.6966 234
373.7799 238
373.8632 166
373.9466 151
374.0299 119
374.1133 117
374.1966 84
374.2799 58
374.3633 62
374.4466 75
374.5300 136
374.6133 131
374.6966 136
374.7800 241
374.8633 226
374.9467 267
375.0300 353
375.1133 342
375.1967 407
375.2800 410
375.3634 535
375.4467 540
375.5300 495
375.6134 568
375.6967 567
375.7801 601
375.8634 608
375.9467 530
376.0301 628
376.1134 504
376.1968 431
376.2801 450
376.3634 349
376.4468 320
376.5301 274
376.6135 210
376.6968 196
376.7801 157
376.8635 78
376.9468 90
377.0302 46
377.1135 83
377.1968 55
377.2802 57
377.3635 107
377.4469 129
377.5302 153
377.6135 199
377.6969 245
377.7802 317
377.8636 312
377.9469 355
378.0302 395
378.1136 424
378.1969 487
378.2803 544
378.3636 529
378.4469 516
378.5303 543
378.6136 554
378.6970 526
378.7803 548
378.8636 445
378.9470 418
379.0303 384
379.1137 288
379.1970 340
379.2803 227
379.3637 185
379.4470 135
379.5304 109
379.6137 118
379.6970 88
379.7804 64
379.8637 36
379.9471 29
380.0304 29
380.1137 61
380.1971 52
380.2804 87
380.3638 121
380.4471 162
380.5304 212
380.6138 180
380.6971 239
380.7805 311
380.8638 250
380.9471 274
381.0305 316
381.1138 326
381.1972 348
381.2805 314
381.3638 330
381.4472 265
381.5305 334
381.6139 270
381.6972 270
381.7805 268
381.8639 232
381.9472 149
382.0306 163
382.1139 116
382.1972 121
382.2806 65
382.3639 59
382.4473 55
382.5306 60
382.6139 16
382.6973 18
382.7806 9
382.8640 6
382.9473 13
383.0306 30
383.1140 36
383.1973 64
383.2807 53
383.3640 47
383.4473 57
383.5307 81
383.6140 105
383.6974 82
383.7807 72
383.8640 65
383.9474 76
384.0307 67
384.1141 85
384.1974 62
384.2807 65
384.3641 43
384.4474 42
384.5308 53
384.6141 46
384.6974 34
384.7808 17
384.8641 32
384.9475 15
385.0308 38
385.1141 18
385.1975 20
385.2808 12
385.3642 21
385.4475 33
385.5308 18
385.6142 66
385.6975 27
385.7809 41
385.8642 52
385.9475 42
386.0309 54
386.1142 33
386.1976 32
386.2809 27
386.3642 37
386.4476 44
386.5309 33
386.6143 45
386.6976 39
386.7809 49
386.8643 36
386.9476 37
387.0310 54
387.1143 58
387.1976 55
387.2810 80
387.3643 57
387.4477 32
387.5310 81
387.6143 45
387.6977 84
387.7810 24
387.8644 64
387.9477 42
388.0310 52
388.1144 32
388.1977 43
388.2811 53
388.3644 42
388.4477 50
388.5311 51
388.6144 84
388.6978 52
388.7811 60
388.8644 80
388.9478 113
389.0311 130
389.1145 109
389.1978 136
389.2811 142
389.3645 161
389.4478 178
389.5312 225
389.6145 228
389.6978 201
389.7812 256
389.8645 240
389.9479 271
390.0312 285
390.1145 275
390.1979 284
390.2812 233
390.3646 258
390.4479 196
390.5312 207
390.6146 179
390.6979 169
390.7813 149
390.8646 135
390.9479 92
391.0313 108
391.1146 92
391.1980 45
391.2813 45
391.3646 91
391.4480 81
391.5313 112
391.6147 120
391.6980 133
391.7813 164
391.8647 302
391.9480 259
392.0314 273
392.1147 298
392.1980 422
392.2814 444
392.3647 359
392.4481 367
392.5314 471
392.6147 506
392.6981 435
392.7814 455
392.8648 468
392.9481 450
393.0314 393
393.1148 412
393.1981 369
393.2815 289
393.3648 304
393.4481 255
393.5315 237
393.6148 206
393.6982 136
393.7815 124
393.8648 79
393.9482 80
394.0315 77
394.1149 63
394.1982 76
394.2815 88
394.3649 78
394.4482 90
394.5316 134
394.6149 144
394.6982 170
394.7816 234
394.8649 256
394.9483 322
395.0316 349
395.1149 356
395.1983 391
395.2816 387
395.3650 402
395.4483 420
395.5316 450
395.6150 467
395.6983 417
395.7817 350
395.8650 366
395.9483 329
396.0317 301
396.1150 242
396.1984 206
396.2817 214
396.3650 196
396.4484 138
396.5317 131
396.6151 101
396.6984 51
396.7817 34
396.8651 52
396.9484 40
397.0318 28
397.1151 21
397.1984 49
397.2818 51
397.3651 83
397.4485 91
397.5318 118
397.6151 175
397.6985 198
397.7818 190
397.8652 217
397.9485 230
398.0318 247
398.1152 207
398.1985 205
398.2819 188
398.3652 241
398.4485 247
398.5319 177
398.6152 195
398.6986 197
398.7819 165
398.8652 163
398.9486 161
399.0319 128
399.1153 113
399.1986 101
399.2819 66
399.3653 56
399.4486 70
399.5320 48
399.6153 32
399.6986 54
399.7820 24
399.8653 37
399.9487 15
400.0320 24
400.1153 29
400.1987 36
400.2820 23
400.3654 34
400.4487 51
400.5320 36
400.6154 55
400.6987 66
400.7821 43
400.8654 75
400.9487 93
401.0321 80
401.1154 67
401.1988 80
401.2821 65
401.3654 35
401.4488 65
401.5321 47
401.6155 52
401.6988 80
401.7821 44
401.8655 26
401.9488 18
402.0322 32
402.1155 28
402.1988 24
402.2822 9
402.3655 38
402.4489 30
402.5322 20
402.6155 2
402.6989 9
402.7822 24
402.8656 18
402.9489 22
403.0322 15
403.1156 9
403.1989 29
403.2823 16
403.3656 17
403.4489 11
403.5323 4
403.6156 29
403.6990 48
403.7823 34
403.8656 34
403.9490 13
404.0323 20
404.1157 28
404.1990 40
404.2823 39
404.3657 26
404.4490 40
404.5324 9
404.6157 26
404.6990 19
404.7824 24
404.8657 31
404.9491 52
405.0324 34
405.1157 34
405.1991 29
405.2824 27
405.3658 3
405.4491 17
405.5324 15
405.6158 39
405.6991 34
405.7825 28
405.8658 21
405.9491 48
406.0325 39
406.1158 50
406.1992 34
406.2825 39
406.3658 55
406.4492 78
406.5325 77
406.6159 83
406.6992 105
406.7825 123
406.8659 111
406.9492 122
407.0326 138
407.1159 124
407.1992 141
407.2826 143
407.3659 109
407.4493 122
407.5326 115
407.6159 115
407.6993 74
407.7826 79
407.8660 99
407.9493 67
408.0326 47
408.1160 61
408.1993 28
408.2827 45
408.3660 17
408.4493 48
408.5327 32
408.6160 19
408.6994 43
408.7827 46
408.8660 50
408.9494 93
409.0327 86
409.1161 128
409.1994 102
409.2827 143
409.3661 144
409.4494 169
409.5328 223
409.6161 250
409.6994 226
409.7828 210
409.8661 225
409.9495 246
410.0328 194
410.1161 217
410.1995 211
410.2828 193
410.3662 189
410.4495 141
410.5328 158
410.6162 118
410.6995 132
410.7829 97
410.8662 73
410.9495 58
411.0329 34
411.1162 27
411.1996 55
411.2829 53
411.3662 57
411.4496 40
411.5329 26
411.6163 49
411.6996 60
411.7829 90
411.8663 87
411.9496 75
412.0330 107
412.1163 141
412.1996 180
412.2830 186
412.3663 185
412.4497 202
412.5330 180
412.6163 180
412.6997 231
412.7830 194
412.8664 193
412.9497 209
413.0330 200
413.1164 196
413.1997 136
413.2831 142
413.3664 145
413.4497 138
413.5331 111
413.6164 119
413.6998 82
413.7831 68
413.8664 61
413.9498 62
414.0331 41
414.1165 39
414.1998 32
414.2831 16
414.3665 26
414.4498 48
414.5332 40
414.6165 51
414.6998 75
414.7832 72
414.8665 116
414.9499 136
415.0332 146
415.1165 131
415.1999 137
415.2832 176
415.3666 166
415.4499 182
415.5332 169
415.6166 170
415.6999 136
415.7833 175
415.8666 149
415.9499 127
416.0333 120
416.1166 118
416.2000 79
416.2833 65
416.3666 50
416.4500 72
416.5333 36
416.6167 39
416.7000 28
416.7833 25
416.8667 22
416.9500 22
417.0334 23
417.1167 32
417.2000 38
417.2834 25
417.3667 31
417.4501 55
417.5334 52
417.6167 39
417.7001 40
417.7834 56
417.8668 43
417.9501 39
418.0334 39
418.1168 52
418.2001 61
418.2835 61
418.3668 46
418.4501 67
418.5335 38
418.6168 66
418.7002 48
418.7835 37
418.8668 32
418.9502 39
419.0335 64
419.1169 37
419.2002 11
419.2835 14
419.3669 23
419.4502 11
419.5336 8
419.6169 28
419.7002 26
419.7836 16
419.8669 13
419.9503 17
420.0336 29
420.1169 10
420.2003 8
420.2836 8
420.3670 17
420.4503 8
420.5336 25
420.6170 23
420.7003 29
420.7837 14
420.8670 19
420.9503 18
421.0337 20
421.1170 51
421.2004 22
421.2837 31
421.3670 17
421.4504 16
421.5337 13
421.6171 19
421.7004 6
421.7837 15
421.8671 24
421.9504 19
422.0338 8
422.1171 57
422.2004 20
422.2838 28
422.3671 19
422.4505 18
422.5338 7
422.6171 18
422.7005 24
422.7838 24
422.8672 16
422.9505 7
423.0338 7
423.1172 12
423.2005 27
423.2839 38
423.3672 46
423.4505 41
423.5339 59
423.6172 39
423.7006 69
423.7839 58
423.8672 54
423.9506 62
424.0339 48
424.1173 56
424.2006 64
424.2839 68
424.3673 68
424.4506 73
424.5340 77
424.6173 61
424.7006 50
424.7840 64
424.8673 40
424.9507 74
425.0340 33
425.1173 31
425.2007 24
425.2840 26
425.3674 56
425.4507 22
425.5340 32
425.6174 15
425.7007 20
425.7841 37
425.8674 23
425.9507 62
426.0341 28
426.1174 59
426.2008 40
426.2841 77
426.3674 86
426.4508 65
426.5341 86
426.6175 89
426.7008 85
426.7841 109
426.8675 133
426.9508 102
427.0342 80
427.1175 110
427.2008 102
427.2842 94
427.3675 106
427.4509 80
427.5342 67
427.6175 63
427.7009 48
427.7842 39
427.8676 50
427.9509 39
428.0342 20
428.1176 29
428.2009 19
428.2843 25
428.3676 22
428.4509 29
428.5343 51
428.6176 15
428.7010 60
428.7843 36
428.8676 63
428.9510 53
429.0343 64
429.1177 85
429.2010 75
429.2843 69
429.3677 73
429.4510 151
429.5344 109
429.6177 124
429.7010 117
429.7844 89
429.8677 110
429.9511 106
430.0344 113
430.1177 128
430.2011 98
430.2844 74
430.3678 103
430.4511 69
430.5344 60
430.6178 34
430.7011 39
430.7845 41
430.8678 27
430.9511 18
431.0345 25
431.1178 12
431.2012 31
431.2845 32
431.3678 21
431.4512 18
431.5345 10
431.6179 12
431.7012 51
431.7845 47
431.8679 76
431.9512 45
432.0346 80
432.1179 107
432.2012 87
432.2846 96
432.3679 107
432.4513 107
432.5346 75
432.6179 80
432.7013 70
432.7846 86
432.8680 124
432.9513 108
433.0346 106
433.1180 93
433.2013 101
433.2847 70
433.3680 57
433.4513 55
433.5347 51
433.6180 32
433.7014 24
433.7847 38
433.8680 51
433.9514 33
434.0347 25
434.1181 21
434.2014 34
434.2847 11
434.3681 33
434.4514 26
434.5348 18
434.6181 31
434.7014 25
434.7848 29
434.8681 23
434.9515 23
435.0348 36
435.1181 53
435.2015 26
435.2848 45
435.3682 30
435.4515 29
435.5348 37
435.6182 54
435.7015 37
435.7849 24
435.8682 34
435.9515 40
436.0349 32
436.1182 44
436.2016 30
436.2849 15
436.3682 27
436.4516 35
436.5349 33
436.6183 15
436.7016 28
436.7849 26
436.8683 52
436.9516 33
437.0350 35
437.1183 35
437.2016 19
437.2850 20
437.3683 28
437.4517 10
437.5350 69
437.6183 46
437.7017 19
437.7850 46
437.8684 32
437.9517 18
438.0350 34
438.1184 1
438.2017 25
438.2851 11
438.3684 25
438.4517 26
438.5351 12
438.6184 6
438.7018 22
438.7851 12
438.8684 34
438.9518 27
439.0351 22
439.1185 8
439.2018 32
439.2851 24
439.3685 43
439.4518 26
439.5352 21
439.6185 29
439.7018 36
439.7852 57
439.8685 27
439.9519 60
440.0352 33
440.1185 46
440.2019 26
440.2852 31
440.3686 58
440.4519 52
440.5352 40
440.6186 66
440.7019 38
440.7853 64
440.8686 60
440.9519 55
441.0353 69
441.1186 45
441.2020 48
441.2853 53
441.3686 54
441.4520 41
441.5353 32
441.6187 52
441.7020 33
441.7853 43
441.8687 33
441.9520 43
442.0354 21
442.1187 26
442.2020 19
442.2854 12
442.3687 23
442.4521 9
442.5354 26
442.6187 37
442.7021 42
442.7854 36
442.8688 43
442.9521 59
443.0354 56
443.1188 63
443.2021 76
443.2855 41
443.3688 45
443.4521 118
443.5355 88
443.6188 98
443.7022 99
443.7855 116
443.8688 100
443.9522 120
444.0355 125
444.1189 110
444.2022 108
444.2855 78
444.3689 96
444.4522 92
444.5356 62
444.6189 69
444.7022 42
444.7856 59
444.8689 31
444.9523 38
445.0356 28
445.1189 35
445.2023 13
445.2856 21
445.3690 15
445.4523 17
445.5356 25
445.6190 52
445.7023 46
445.7857 41
445.8690 84
445.9523 71
446.0357 71
446.1190 114
446.2024 101
446.2857 95
446.3690 104
446.4524 100
446.5357 69
446.6191 126
446.7024 164
446.7857 108
446.8691 116
446.9524 123
447.0358 105
447.1191 125
447.2024 132
447.2858 95
447.3691 95
447.4525 85
447.5358 65
447.6191 42
447.7025 60
447.7858 40
447.8692 39
447.9525 22
448.0358 19
448.1192 23
448.2025 34
448.2859 17
448.3692 35
448.4525 28
448.5359 31
448.6192 27
448.7026 53
448.7859 66
448.8692 46
448.9526 70
449.0359 68
449.1193 72
449.2026 93
449.2859 88
449.3693 102
449.4526 115
449.5360 95
449.6193 119
449.7026 115
449.7860 110
449.8693 77
449.9527 55
450.0360 77
450.1193 73
450.2027 64
450.2860 54
450.3694 49
450.4527 33
450.5360 54
450.6194 21
450.7027 30
450.7861 27
450.8694 23
450.9527 26
451.0361 33
451.1194 19
451.2028 26
451.2861 32
451.3694 31
451.4528 31
451.5361 19
451.6195 32
451.7028 56
451.7861 39
451.8695 53
451.9528 89
452.0362 50
452.1195 58
452.2028 36
452.2862 47
452.3695 53
452.4529 41
452.5362 42
452.6195 46
452.7029 22
452.7862 57
452.8696 23
452.9529 19
453.0362 23
453.1196 38
453.2029 37
453.2863 13
453.3696 12
453.4529 27
453.5363 20
453.6196 44
453.7030 48
453.7863 8
453.8696 15
453.9530 20
454.0363 26
454.1197 29
454.2030 35
454.2863 26
454.3697 17
454.4530 43
454.5364 29
454.6197 23
454.7030 25
454.7864 26
454.8697 18
454.9531 16
455.0364 16
455.1197 16
455.2031 22
455.2864 10
455.3698 10
455.4531 35
455.5364 29
455.6198 14
455.7031 7
455.7865 11
455.8698 9
455.9531 10
456.0365 17
456.1198 21
456.2032 8
456.2865 14
456.3698 30
456.4532 20
456.5365 14
456.6199 11
456.7032 28
456.7865 24
456.8699 25
456.9532 24
457.0366 45
457.1199 33
457.2032 42
457.2866 37
457.3699 32
457.4533 55
457.5366 34
457.6199 49
457.7033 56
457.7866 44
457.8700 30
457.9533 19
458.0366 32
458.1200 10
458.2033 33
458.2867 23
458.3700 33
458.4533 27
458.5367 27
458.6200 31
458.7034 44
458.7867 32
458.8700 42
458.9534 21
459.0367 22
459.1201 51
459.2034 47
459.2867 20
459.3701 19
459.4534 19
459.5368 44
459.6201 41
459.7034 21
459.7868 42
459.8701 33
459.9535 21
460.0368 12
460.1201 35
460.2035 25
460.2868 28
460.3702 21
460.4535 37
460.5368 28
460.6202 43
460.7035 38
460.7869 41
460.8702 40
460.9535 68
461.0369 52
461.1202 59
461.2036 36
461.2869 39
461.3702 54
461.4536 46
461.5369 43
461.6203 40
461.7036 79
461.7869 62
461.8703 114
461.9536 69
462.0370 66
462.1203 45
462.2036 61
462.2870 64
462.3703 59
462.4537 50
462.5370 29
462.6203 24
462.7037 34
462.7870 61
462.8704 25
462.9537 40
463.0370 27
463.1204 41
463.2037 46
463.2871 39
463.3704 49
463.4537 49
463.5371 61
463.6204 39
463.7038 79
463.7871 66
463.8704 66
463.9538 36
464.0371 57
464.1205 49
464.2038 63
464.2871 71
464.3705 53
464.4538 44
464.5372 39
464.6205 79
464.7038 22
464.7872 46
464.8705 25
464.9539 41
465.0372 18
465.1205 35
465.2039 57
465.2872 32
465.3706 24
465.4539 24
465.5372 30
465.6206 30
465.7039 22
465.7873 11
465.8706 42
465.9539 42
466.0373 38
466.1206 34
466.2040 32
466.2873 46
466.3706 48
466.4540 69
466.5373 45
466.6207 59
466.7040 55
466.7873 50
466.8707 76
466.9540 67
467.0374 67
467.1207 59
467.2040 51
467.2874 46
467.3707 63
467.4541 41
467.5374 38
467.6207 45
467.7041 44
467.7874 44
467.8708 32
467.9541 22
468.0374 29
468.1208 25
468.2041 26
468.2875 8
468.3708 23
468.4541 5
468.5375 25
468.6208 29
468.7042 14
468.7875 20
468.8708 50
468.9542 50
469.0375 35
469.1209 36
469.2042 28
469.2875 47
469.3709 24
469.4542 44
469.5376 18
469.6209 28
469.7042 42
469.7876 37
469.8709 54
469.9543 27
470.0376 46
470.1209 24
470.2043 34
470.2876 19
470.3710 28
470.4543 34
470.5376 15
470.6210 20
470.7043 22
470.7877 38
470.8710 23
470.9543 17
471.0377 15
471.1210 30
471.2044 17
471.2877 8
471.3710 37
471.4544 16
471.5377 15
471.6211 17
471.7044 37
471.7877 17
471.8711 16
471.9544 37
472.0378 29
472.1211 12
472.2044 23
472.2878 16
472.3711 15
472.4545 19
472.5378 15
472.6211 12
472.7045 24
472.7878 41
472.8712 29
472.9545 15
473.0378 29
473.1212 9
473.2045 27
473.2879 27
473.3712 20
473.4545 14
473.5379 13
473.6212 19
473.7046 44
473.7879 18
473.8712 27
473.9546 16
474.0379 22
474.1213 26
474.2046 15
474.2879 13
474.3713 24
474.4546 19
474.5380 34
474.6213 8
474.7046 12
474.7880 9
474.8713 18
474.9547 22
475.0380 25
475.1213 20
475.2047 24
475.2880 10
475.3714 6
475.4547 18
475.5380 21
475.6214 26
475.7047 6
475.7881 12
475.8714 32
475.9547 10
476.0381 16
476.1214 37
476.2048 28
476.2881 36
476.3714 28
476.4548 20
476.5381 21
476.6215 18
476.7048 19
476.7881 49
476.8715 33
476.9548 28
477.0382 22
477.1215 16
477.2048 20
477.2882 37
477.3715 31
477.4549 26
477.5382 16
477.6215 42
477.7049 12
477.7882 24
477.8716 14
477.9549 13
478.0382 25
478.1216 16
478.2049 12
478.2883 32
478.3716 21
478.4549 24
478.5383 17
478.6216 54
478.7050 23
478.7883 33
478.8716 25
478.9550 45
479.0383 37
479.1217 84
479.2050 39
479.2883 50
479.3717 39
479.4550 70
479.5384 37
479.6217 22
479.7050 57
479.7884 35
479.8717 20
479.9551 48
480.0384 25
480.1217 23
480.2051 26
480.2884 19
480.3718 30
480.4551 21
480.5384 14
480.6218 22
480.7051 17
480.7885 13
480.8718 18
480.9551 23
481.0385 24
481.1218 36
481.2052 26
481.2885 21
481.3718 11
481.4552 33
481.5385 35
481.6219 46
481.7052 40
481.7885 40
481.8719 55
481.9552 30
482.0386 73
482.1219 46
482.2052 36
482.2886 42
482.3719 40
482.4553 37
482.5386 65
482.6219 34
482.7053 47
482.7886 23
482.8720 30
482.9553 27
483.0386 28
483.1220 26
483.2053 21
483.2887 28
483.3720 8
483.4553 10
483.5387 9
483.6220 16
483.7054 17
483.7887 18
483.8720 18
483.9554 17
484.0387 31
484.1221 28
484.2054 52
484.2887 28
484.3721 32
484.4554 45
484.5388 43
484.6221 60
484.7054 34
484.7888 29
484.8721 57
484.9555 43
485.0388 61
485.1221 35
485.2055 34
485.2888 50
485.3722 75
485.4555 37
485.5388 65
485.6222 44
485.7055 67
485.7889 39
485.8722 25
485.9555 15
486.0389 34
486.1222 9
486.2056 11
486.2889 35
486.3722 12
486.4556 20
486.5389 11
486.6223 17
486.7056 19
486.7889 41
486.8723 25
486.9556 21
487.0390 44
487.1223 46
487.2056 25
487.2890 31
487.3723 30
487.4557 29
487.5390 32
487.6223 26
487.7057 44
487.7890 29
487.8724 27
487.9557 17
488.0390 32
488.1224 29
488.2057 22
488.2891 29
488.3724 41
488.4557 20
488.5391 22
488.6224 48
488.7058 28
488.7891 15
488.8724 10
488.9558 8
489.0391 15
489.1225 22
489.2058 14
489.2891 15
489.3725 14
489.4558 15
489.5392 13
489.6225 9
489.7058 4
489.7892 9
489.8725 9
489.9559 18
490.0392 17
490.1225 25
490.2059 11
490.2892 22
490.3726 19
490.4559 32
490.5392 12
490.6226 21
490.7059 16
490.7893 39
490.8726 16
490.9559 18
491.0393 6
491.1226 14
491.2060 52
491.2893 19
491.3726 24
491.4560 36
491.5393 10
491.6227 27
491.7060 13
491.7893 2
491.8727 35
491.9560 25
492.0394 41
492.1227 8
492.2060 5
492.2894 16
492.3727 15
492.4561 19
492.5394 18
492.6227 20
492.7061 22
492.7894 25
492.8728 31
492.9561 14
493.0394 24
493.1228 7
493.2061 31
493.2895 29
493.3728 47
493.4561 49
493.5395 13
493.6228 15
493.7062 18
493.7895 30
493.8728 11
493.9562 16
494.0395 19
494.1229 10
494.2062 4
494.2895 5
494.3729 45
494.4562 15
494.5396 23
494.6229 13
494.7062 9
494.7896 14
494.8729 6
494.9563 11
495.0396 14
495.1229 12
495.2063 31
495.2896 17
495.3730 18
495.4563 16
495.5396 11
495.6230 11
495.7063 24
495.7897 29
495.8730 39
495.9563 27
496.0397 21
496.1230 16
496.2064 17
496.2897 16
496.3730 28
496.4564 27
496.5397 34
496.6231 23
496.7064 28
496.7897 27
496.8731 27
496.9564 17
497.0398 23
497.1231 25
497.2064 21
497.2898 12
497.3731 21
497.4565 5
497.5398 8
497.6231 20
497.7065 14
497.7898 2
497.8732 3
497.9565 12
498.0398 27
498.1232 26
498.2065 16
498.2899 26
498.3732 21
498.4565 11
498.5399 15
498.6232 34
498.7066 20
498.7899 14
498.8732 35
498.9566 35
499.0399 43
499.1233 26
499.2066 31
499.2899 25
499.3733 7
499.4566 18
499.5400 25
499.6233 36
499.7066 16
499.7900 25
499.8733 30
499.9567 10
500.0400 52
500.1233 30
500.2067 9
500.2900 10
500.3734 25
500.4567 37
500.5400 16
500.6234 14
500.7067 10
500.7901 9
500.8734 13
500.9567 5
501.0401 21
501.1234 15
501.2068 3
501.2901 40
501.3734 13
501.4568 24
501.5401 19
501.6235 5
501.7068 8
501.7901 12
501.8735 21
501.9568 12
502.0402 17
502.1235 19
502.2068 20
502.2902 22
502.3735 16
502.4569 30
502.5402 27
502.6235 14
502.7069 29
502.7902 11
502.8736 23
502.9569 64
503.0402 8
503.1236 18
503.2069 18
503.2903 19
503.3736 17
503.4569 16
503.5403 8
503.6236 40
503.7070 26
503.7903 48
503.8736 20
503.9570 18
504.0403 13
504.1237 9
504.2070 14
504.2903 39
504.3737 21
504.4570 28
504.5404 26
504.6237 21
504.7070 14
504.7904 8
504.8737 9
504.9571 2
505.0404 26
505.1237 21
505.2071 10
505.2904 35
505.3738 38
505.4571 13
505.5404 13
505.6238 24
505.7071 17
505.7905 19
505.8738 21
505.9571 9
506.0405 9
506.1238 8
506.2072 23
506.2905 8
506.3738 17
506.4572 8
506.5405 11
506.6239 4
506.7072 14
506.7905 19
506.8739 3
506.9572 14
507.0406 20
507.1239 15
507.2072 12
507.2906 15
507.3739 12
507.4573 22
507.5406 7
507.6239 14
507.7073 18
507.7906 13
507.8740 7
507.9573 16
508.0406 25
508.1240 11
508.2073 15
508.2907 8
508.3740 26
508.4573 14
508.5407 50
508.6240 10
508.7074 3
508.7907 2
508.8740 11
508.9574 19
509.0407 22
509.1241 30
509.2074 25
509.2907 28
509.3741 7
509.4574 11
509.5408 6
509.6241 6
509.7074 17
509.7908 11
509.8741 10
509.9575 12
510.0408 7
510.1241 21
510.2075 29
510.2908 31
510.3742 22
510.4575 16
510.5408 19
510.6242 41
510.7075 14
510.7909 16
510.8742 9
510.9575 7
511.0409 17
511.1242 21
511.2076 6
511.2909 29
511.3742 21
511.4576 8
511.5409 6
511.6243 3
511.7076 22
511.7909 12
511.8743 13
511.9576 11
512.0410 19
512.1243 13
512.2076 21
512.2910 10
512.3743 12
512.4577 6
512.5410 15
512.6243 10
512.7077 32
512.7910 32
512.8744 18
512.9577 7
513.0410 20
513.1244 4
513.2077 11
513.2911 15
513.3744 18
513.4577 29
513.5411 14
513.6244 29
513.7078 7
513.7911 7
513.8744 20
513.9578 35
514.0411 3
514.1245 10
514.2078 5
514.2911 10
514.3745 8
514.4578 13
514.5412 9
514.6245 46
514.7078 16
514.7912 12
514.8745 6
514.9579 7
515.0412 33
515.1245 53
515.2079 37
515.2912 24
515.3746 24
515.4579 12
515.5412 7
515.6246 22
515.7079 13
515.7913 4
515.8746 18
515.9579 15
516.0413 8
516.1246 26
516.2080 18
516.2913 39
516.3746 4
516.4580 59
516.5413 1
516.6247 20
516.7080 14
516.7913 13
516.8747 10
516.9580 5
517.0414 16
517.1247 5
517.2080 20
517.2914 12
517.3747 17
517.4581 8
517.5414 9
517.6247 10
517.7081 20
517.7914 28
517.8748 9
517.9581 25
518.0414 19
518.1248 14
518.2081 13
518.2915 11
518.3748 3
518.4581 4
518.5415 20
518.6248 22
518.7082 21
518.7915 15
518.8748 8
518.9582 5
519.0415 12
519.1249 19
519.2082 7
519.2915 9
519.3749 23
519.4582 18
519.5416 5
519.6249 9
519.7082 2
519.7916 16
519.8749 20
519.9583 10
520.0416 30
520.1249 9
520.2083 6
520.2916 15
520.3750 15
520.4583 18
520.5416 28
520.6250 35
520.7083 10
520.7917 12
520.8750 15
520.9583 21
521.0417 6
521.1250 13
521.2084 16
521.2917 10
521.3750 4
521.4584 23
521.5417 12
521.6251 13
521.7084 16
521.7917 10
521.8751 18
521.9584 26
522.0418 20
522.1251 14
522.2084 11
522.2918 4
522.3751 7
522.4585 12
522.5418 10
522.6251 5
522.7085 19
522.7918 29
522.8752 6
522.9585 15
523.0418 27
523.1252 29
523.2085 11
523.2919 9
523.3752 14
523.4585 16
523.5419 12
523.6252 19
523.7086 12
523.7919 15
523.8752 29
523.9586 4
524.0419 7
524.1253 6
524.2086 18
524.2919 55
524.3753 5
524.4586 4
524.5420 11
524.6253 15
524.7086 16
524.7920 13
524.8753 9
524.9587 20
525.0420 13
525.1253 15
525.2087 9
525.2920 5
525.3754 12
525.4587 6
525.5420 11
525.6254 27
525.7087 24
525.7921 15
525.8754 7
525.9587 10
526.0421 11
526.1254 21
526.2088 36
526.2921 2
526.3754 4
526.4588 10
526.5421 9
526.6255 25
526.7088 41
526.7921 9
526.8755 17
526.9588 10
527.0422 3
527.1255 14
527.2088 6
527.2922 24
527.3755 30
527.4589 6
527.5422 13
527.6255 9
527.7089 7
527.7922 43
527.8756 17
527.9589 24
528.0422 13
528.1256 10
528.2089 60
528.2923 19
528.3756 18
528.4589 7
528.5423 2
528.6256 6
528.7090 17
528.7923 9
528.8756 16
528.9590 7
529.0423 18
529.1257 13
529.2090 6
529.2923 25
529.3757 14
529.4590 16
529.5424 16
529.6257 3
529.7090 20
529.7924 34
529.8757 4
529.9591 27
530.0424 2
530.1257 14
530.2091 12
530.2924 8
530.3758 12
530.4591 24
530.5424 29
530.6258 2
530.7091 8
530.7925 26
530.8758 25
530.9591 5
531.0425 23
531.1258 6
531.2092 18
531.2925 17
531.3758 11
531.4592 15
531.5425 11
531.6259 14
531.7092 22
531.7925 14
531.8759 9
531.9592 3
532.0426 33
532.1259 4
532.2092 19
532.2926 5
532.3759 11
532.4593 26
532.5426 3
532.6259 12
532.7093 24
532.7926 28
532.8760 9
532.9593 5
533.0426 14
533.1260 22
533.2093 15
533.2927 8
533.3760 14
533.4593 19
533.5427 33
533.6260 2
533.7094 19
533.7927 30
533.8760 9
533.9594 12
534.0427 30
534.1261 18
534.2094 1
534.2927 19
534.3761 15
534.4594 8
534.5428 21
534.6261 3
534.7094 13
534.7928 7
534.8761 22
534.9595 16
535.0428 11
535.1261 16
535.2095 30
535.2928 11
535.3762 8
535.4595 11
535.5428 8
535.6262 33
535.7095 31
535.7929 16
535.8762 18
535.9595 9
536.0429 29
536.1262 15
536.2096 34
536.2929 9
536.3762 14
536.4596 11
536.5429 17
536.6263 27
536.7096 51
536.7929 16
536.8763 31
536.9596 3
537.0430 20
537.1263 2
537.2096 4
537.2930 5
537.3763 16
537.4597 12
537.5430 9
537.6263 16
537.7097 17
537.7930 4
537.8764 15
537.9597 7
538.0430 17
538.1264 25
538.2097 10
538.2931 36
538.3764 20
538.4597 16
538.5431 11
538.6264 13
538.7098 12
538.7931 7
538.8764 44
538.9598 16
539.0431 21
539.1265 1
539.2098 18
539.2931 12
539.3765 4
539.4598 9
539.5432 25
539.6265 14
539.7098 22
539.7932 28
539.8765 6
539.9599 37
540.0432 11
540.1265 23
540.2099 3
540.2932 21
540.3766 16
540.4599 11
540.5432 8
540.6266 8
540.7099 0
540.7933 12
540.8766 11
540.9599 18
541.0433 6
541.1266 7
541.2100 21
541.2933 11
541.3766 5
541.4600 5
541.5433 31
541.6267 8
541.7100 12
541.7933 19
541.8767 13
541.9600 18
542.0434 6
542.1267 18
542.2100 10
542.2934 14
542.3767 9
542.4601 12
542.5434 8
542.6267 29
542.7101 7
542.7934 2
542.8768 14
542.9601 52
543.0434 11
543.1268 10
543.2101 10
543.2935 17
543.3768 18
543.4601 1
543.5435 12
543.6268 13
543.7102 27
543.7935 2
543.8768 6
543.9602 20
544.0435 17
544.1269 9
544.2102 11
544.2935 8
544.3769 30
544.4602 19
544.5436 14
544.6269 36
544.7102 5
544.7936 27
544.8769 13
544.9603 8
545.0436 14
545.1269 24
545.2103 15
545.2936 1
545.3770 9
545.4603 9
545.5436 15
545.6270 19
545.7103 20
545.7937 17
545.8770 12
545.9603 22
546.0437 8
546.1270 6
546.2104 42
546.2937 11
546.3770 11
546.4604 6
546.5437 29
546.6271 11
546.7104 11
546.7937 8
546.8771 9
546.9604 17
547.0438 9
547.1271 13
547.2104 17
547.2938 6
547.3771 18
547.4605 10
547.5438 6
547.6271 6
547.7105 24
547.7938 9
547.8772 9
547.9605 21
548.0438 8
548.1272 16
548.2105 46
548.2939 12
548.3772 14
548.4605 6
548.5439 9
548.6272 16
548.7106 9
548.7939 3
548.8772 3
548.9606 34
549.0439 19
549.1273 8
549.2106 21
549.2939 19
549.3773 21
549.4606 33
549.5440 9
549.6273 11
549.7106 19
549.7940 1
549.8773 18
549.9607 12
550.0440 32
550.1273 9
550.2107 5
550.2940 16
550.3774 15
550.4607 14
550.5440 6
550.6274 8
550.7107 38
550.7941 38
550.8774 10
550.9607 25
551.0441 26
551.1274 48
551.2108 33
551.2941 24
551.3774 17
551.4608 11
551.5441 11
551.6275 25
551.7108 9
551.7941 42
551.8775 6
551.9608 9
552.0442 16
552.1275 16
552.2108 14
552.2942 15
552.3775 8
552.4609 33
552.5442 25
552.6275 19
552.7109 14
552.7942 6
552.8776 14
552.9609 19
553.0442 6
553.1276 18
553.2109 19
553.2943 12
553.3776 9
553.4609 27
553.5443 15
553.6276 30
553.7110 5
553.7943 11
553.8776 13
553.9610 30
554.0443 25
554.1277 6
554.2110 27
554.2943 11
554.3777 14
554.4610 5
554.5444 12
554.6277 27
554.7110 28
554.7944 26
554.8777 21
554.9611 16
555.0444 11
555.1277 6
555.2111 10
555.2944 36
555.3778 15
555.4611 12
555.5444 8
555.6278 15
555.7111 13
555.7945 24
555.8778 6
555.9611 8
556.0445 7
556.1278 27
556.2112 3
556.2945 6
556.3778 14
556.4612 29
556.5445 33
556.6279 4
556.7112 13
556.7945 12
556.8779 25
556.9612 23
557.0446 12
557.1279 12
557.2112 6
557.2946 37
557.3779 44
557.4613 6
557.5446 11
557.6279 18
557.7113 5
557.7946 7
557.8780 5
557.9613 18
558.0446 9
558.1280 28
558.2113 14
558.2947 9
558.3780 22
558.4613 35
558.5447 15
558.6280 10
558.7114 21
558.7947 8
558.8780 5
558.9614 24
559.0447 14
559.1281 10
559.2114 8
559.2947 6
559.3781 12
559.4614 29
559.5448 7
559.6281 40
559.7114 12
559.7948 10
559.8781 12
559.9615 16
560.0448 8
560.1281 22
560.2115 36
560.2948 19
560.3782 19
560.4615 15
560.5448 7
560.6282 14
560.7115 9
560.7949 22
560.8782 19
560.9615 19
561.0449 8
561.1282 20
561.2116 33
561.2949 11
561.3782 7
561.4616 17
561.5449 48
561.6283 13
561.7116 10
561.7949 15
561.8783 24
561.9616 22
562.0450 13
562.1283 14
562.2116 18
562.2950 16
562.3783 14
562.4617 13
562.5450 12
562.6283 19
562.7117 28
562.7950 2
562.8784 6
562.9617 59
563.0450 20
563.1284 16
563.2117 9
563.2951 18
563.3784 26
563.4617 9
563.5451 17
563.6284 9
563.7118 9
563.7951 16
563.8784 22
563.9618 31
564.0451 16
564.1285 8
564.2118 24
564.2951 6
564.3785 21
564.4618 3
564.5452 18
564.6285 8
564.7118 23
564.7952 32
564.8785 3
564.9619 39
565.0452 21
565.1285 8
565.2119 9
565.2952 9
565.3786 12
565.4619 49
565.5452 12
565.6286 26
565.7119 19
565.7953 2
565.8786 13
565.9619 11
566.0453 17
566.1286 12
566.2120 11
566.2953 11
566.3786 22
566.4620 18
566.5453 18
566.6287 21
566.7120 10
566.7953 19
566.8787 18
566.9620 22
567.0454 12
567.1287 22
567.2120 39
567.2954 10
567.3787 12
567.4621 16
567.5454 8
567.6287 14
567.7121 32
567.7954 16
567.8788 28
567.9621 16
568.0454 21
568.1288 12
568.2121 27
568.2955 18
568.3788 15
568.4621 27
568.5455 28
568.6288 5
568.7122 4
568.7955 32
568.8788 3
568.9622 8
569.0455 6
569.1289 22
569.2122 3
569.2955 20
569.3789 11
569.4622 3
569.5456 30
569.6289 6
569.7122 10
569.7956 10
569.8789 11
569.9623 12
570.0456 27
570.1289 16
570.2123 6
570.2956 21
570.3790 29
570.4623 29
570.5456 17
570.6290 6
570.7123 3
570.7957 5
570.8790 19
570.9623 23
571.0457 11
571.1290 8
571.2124 14
571.2957 24
571.3790 14
571.4624 9
571.5457 5
571.6291 16
571.7124 20
571.7957 7
571.8791 17
571.9624 20
572.0458 14
572.1291 23
572.2124 11
572.2958 28
572.3791 33
572.4625 33
572.5458 11
572.6291 26
572.7125 19
572.7958 23
572.8792 23
572.9625 12
573.0458 20
573.1292 11
573.2125 24
573.2959 10
573.3792 8
573.4625 2
573.5459 20
573.6292 13
573.7126 10
573.7959 17
573.8792 13
573.9626 13
574.0459 7
574.1293 8
574.2126 16
574.2959 6
574.3793 20
574.4626 12
574.5460 31
574.6293 15
574.7126 6
574.7960 25
574.8793 0
574.9627 20
575.0460 7
575.1293 16
575.2127 17
575.2960 20
575.3794 36
575.4627 20
575.5460 12
575.6294 37
575.7127 10
575.7961 5
575.8794 16
575.9627 11
576.0461 18
576.1294 9
576.2128 10
576.2961 30
576.3794 23
576.4628 27
576.5461 8
576.6295 12
576.7128 70
576.7961 42
576.8795 2
576.9628 34
577.0462 15
577.1295 13
577.2128 27
577.2962 2
577.3795 4
577.4629 21
577.5462 16
577.6295 13
577.7129 12
577.7962 30
577.8796 11
577.9629 45
578.0462 23
578.1296 16
578.2129 8
578.2963 0
578.3796 2
578.4629 30
578.5463 13
578.6296 30
578.7130 19
578.7963 28
578.8796 22
578.9630 19
579.0463 5
579.1297 25
579.2130 1
579.2963 16
579.3797 6
579.4630 33
579.5464 21
579.6297 3
579.7130 4
579.7964 21
579.8797 28
579.9631 14
580.0464 10
580.1297 46
580.2131 17
580.2964 23
580.3798 21
580.4631 12
580.5464 32
580.6298 7
580.7131 10
580.7965 2
580.8798 41
580.9631 2
581.0465 25
581.1298 14
581.2132 22
581.2965 33
581.3798 14
581.4632 30
581.5465 32
581.6299 10
581.7132 33
581.7965 0
581.8799 30
581.9632 20
582.0466 22
582.1299 14
582.2132 9
582.2966 18
582.3799 19
582.4633 18
582.5466 13
582.6299 26
582.7133 22
582.7966 17
582.8800 29
582.9633 22
583.0466 8
583.1300 16
583.2133 9
583.2967 12
583.3800 3
583.4633 13
583.5467 11
583.6300 12
583.7134 25
583.7967 27
583.8800 31
583.9634 20
584.0467 52
584.1301 16
584.2134 20
584.2967 2
584.3801 30
584.4634 8
584.5468 37
584.6301 3
584.7134 15
584.7968 17
584.8801 22
584.9635 7
585.0468 63
585.1301 19
585.2135 31
585.2968 11
585.3802 22
585.4635 16
585.5468 23
585.6302 20
585.7135 14
585.7969 4
585.8802 22
585.9635 18
586.0469 12
586.1302 14
586.2136 9
586.2969 3
586.3802 8
586.4636 12
586.5469 11
586.6303 0
586.7136 11
586.7969 29
586.8803 5
586.9636 14
587.0470 25
587.1303 22
587.2136 14
587.2970 15
587.3803 6
587.4637 12
587.5470 8
587.6303 9
587.7137 21
587.7970 12
587.8804 25
587.9637 21
588.0470 27
588.1304 12
588.2137 16
588.2971 10
588.3804 9
588.4637 12
588.5471 1
588.6304 17
588.7138 21
588.7971 15
588.8804 39
588.9638 25
589.0471 39
589.1305 9
589.2138 14
589.2971 19
589.3805 26
589.4638 13
589.5472 20
589.6305 15
589.7138 37
589.7972 36
589.8805 12
589.9639 14
590.0472 23
590.1305 17
590.2139 6
590.2972 7
590.3806 8
590.4639 16
590.5472 17
590.6306 10
590.7139 11
590.7973 19
590.8806 9
590.9639 10
591.0473 23
591.1306 10
591.2140 13
591.2973 12
591.3806 23
591.4640 8
591.5473 18
591.6307 4
591.7140 21
591.7973 7
591.8807 22
591.9640 14
592.0474 26
592.1307 40
592.2140 17
592.2974 16
592.3807 32
592.4641 4
592.5474 14
592.6307 36
592.7141 22
592.7974 25
592.8808 10
592.9641 5
593.0474 5
593.1308 7
593.2141 3
593.2975 7
593.3808 30
593.4641 27
593.5475 15
593.6308 25
593.7142 21
593.7975 21
593.8808 10
593.9642 13
594.0475 15
594.1309 29
594.2142 10
594.2975 39
594.3809 11
594.4642 9
594.5476 10
594.6309 7
594.7142 20
594.7976 33
594.8809 8
594.9643 15
595.0476 10
595.1309 5
595.2143 13
595.2976 5
595.3810 28
595.4643 27
595.5476 20
595.6310 19
595.7143 21
595.7977 32
595.8810 28
595.9643 11
596.0477 36
596.1310 13
596.2144 4
596.2977 6
596.3810 6
596.4644 26
596.5477 20
596.6311 13
596.7144 11
596.7977 9
596.8811 11
596.9644 4
597.0478 15
597.1311 1
597.2144 12
597.2978 4
597.3811 22
597.4645 8
597.5478 26
597.6311 31
597.7145 37
597.7978 0
597.8812 11
597.9645 25
598.0478 14
598.1312 18
598.2145 35
598.2979 43
598.3812 8
598.4645 7
598.5479 23
598.6312 9
598.7146 12
598.7979 35
598.8812 14
598.9646 29
599.0479 22
599.1313 22
599.2146 10
599.2979 23
599.3813 40
599.4646 8
599.5480 13
599.6313 20
599.7146 5
599.7980 14
599.8813 24
599.9647 5
