0.0000 11
0.0833 19
0.1667 13
0.2500 27
0.3334 21
0.4167 16
0.5000 13
0.5834 28
0.6667 15
0.7501 31
0.8334 43
0.9167 31
1.0001 31
1.0834 17
1.1668 15
1.2501 39
1.3334 48
1.4168 30
1.5001 38
1.5835 41
1.6668 34
1.7501 39
1.8335 23
1.9168 42
2.0002 21
2.0835 22
2.1668 21
2.2502 44
2.3335 13
2.4169 23
2.5002 42
2.5835 37
2.6669 23
2.7502 21
2.8336 43
2.9169 18
3.0002 31
3.0836 10
3.1669 48
3.2503 20
3.3336 37
3.4169 49
3.5003 16
3.5836 22
3.6670 15
3.7503 13
3.8336 60
3.9170 23
4.0003 34
4.0837 31
4.1670 16
4.2503 31
4.3337 20
4.4170 19
4.5004 22
4.5837 14
4.6670 14
4.7504 15
4.8337 24
4.9171 26
5.0004 36
5.0837 34
5.1671 30
5.2504 31
5.3338 22
5.4171 16
5.5004 47
5.5838 17
5.6671 30
5.7505 26
5.8338 31
5.9171 26
6.0005 62
6.0838 20
6.1672 31
6.2505 18
6.3338 20
6.4172 30
6.5005 32
6.5839 30
6.6672 32
6.7505 36
6.8339 4
6.9172 9
7.0006 71
7.0839 15
7.1672 19
7.2506 39
7.3339 70
7.4173 38
7.5006 35
7.5839 30
7.6673 7
7.7506 24
7.8340 32
7.9173 30
8.0006 28
8.0840 42
8.1673 8
8.2507 25
8.3340 12
8.4173 22
8.5007 17
8.5840 28
8.6674 20
8.7507 17
8.8340 6
8.9174 33
9.0007 3
9.0841 25
9.1674 16
9.2507 19
9.3341 21
9.4174 34
9.5008 31
9.5841 35
9.6674 46
9.7508 1
9.8341 17
9.9175 28
10.0008 14
10.0841 22
10.1675 27
10.2508 27
10.3342 8
10.4175 2
10.5008 6
10.5842 13
10.6675 12
10.7509 5
10.8342 12
10.9175 15
11.0009 9
11.0842 17
11.1676 26
11.2509 32
11.3342 11
11.4176 18
11.5009 8
11.5843 31
11.6676 18
11.7509 37
11.8343 2
11.9176 17
12.0010 18
12.0843 11
12.1676 30
12.2510 18
12.3343 19
12.4177 14
12.5010 4
12.5843 25
12.6677 33
12.7510 5
12.8344 8
12.9177 10
13.0010 7
13.0844 20
13.1677 5
13.2511 21
13.3344 4
13.4177 11
13.5011 13
13.5844 17
13.6678 8
13.7511 11
13.8344 15
13.9178 8
14.0011 7
14.0845 25
14.1678 31
14.2511 20
14.3345 22
14.4178 22
14.5012 34
14.5845 16
14.6678 11
14.7512 8
14.8345 43
14.9179 23
15.0012 13
15.0845 15
15.1679 17
15.2512 13
15.3346 9
15.4179 28
15.5012 15
15.5846 21
15.6679 20
15.7513 10
15.8346 23
15.9179 9
16.0013 38
16.0846 12
16.1680 21
16.2513 21
16.3346 4
16.4180 12
16.5013 28
16.5847 11
16.6680 6
16.7513 8
16.8347 13
16.9180 17
17.0014 16
17.0847 23
17.1680 3
17.2514 5
17.3347 14
17.4181 25
17.5014 3
17.5847 26
17.6681 35
17.7514 9
17.8348 28
17.9181 8
18.0014 6
18.0848 21
18.1681 9
18.2515 5
18.3348 20
18.4181 11
18.5015 8
18.5848 10
18.6682 29
18.7515 19
18.8348 28
18.9182 3
19.0015 13
19.0849 29
19.1682 10
19.2515 8
19.3349 19
19.4182 15
19.5016 13
19.5849 10
19.6682 22
19.7516 16
19.8349 7
19.9183 10
20.0016 19
20.0849 26
20.1683 38
20.2516 24
20.3350 10
20.4183 20
20.5016 17
20.5850 9
20.6683 6
20.7517 29
20.8350 15
20.9183 11
21.0017 13
21.0850 19
21.1684 19
21.2517 2
21.3350 1
21.4184 4
21.5017 12
21.5851 38
21.6684 26
21.7517 11
21.8351 5
21.9184 6
22.0018 17
22.0851 8
22.1684 16
22.2518 29
22.3351 39
22.4185 36
22.5018 22
22.5851 22
22.6685 10
22.7518 16
22.8352 13
22.9185 1
23.0018 21
23.0852 38
23.1685 16
23.2519 4
23.3352 2
23.4185 52
23.5019 24
23.5852 20
23.6686 30
23.7519 11
23.8352 19
23.9186 25
24.0019 20
24.0853 19
24.1686 15
24.2519 18
24.3353 10
24.4186 0
24.5020 15
24.5853 18
24.6686 46
24.7520 25
24.8353 10
24.9187 16
25.0020 6
25.0853 25
25.1687 12
25.2520 21
25.3354 28
25.4187 13
25.5020 14
25.5854 4
25.6687 30
25.7521 11
25.8354 14
25.9187 14
26.0021 12
26.0854 20
26.1688 29
26.2521 10
26.3354 8
26.4188 19
26.5021 11
26.5855 15
26.6688 10
26.7521 13
26.8355 22
26.9188 9
27.0022 16
27.0855 25
27.1688 19
27.2522 15
27.3355 2
27.4189 18
27.5022 25
27.5855 10
27.6689 8
27.7522 3
27.8356 29
27.9189 2
28.0022 16
28.0856 6
28.1689 12
28.2523 27
28.3356 14
28.4189 20
28.5023 6
28.5856 0
28.6690 4
28.7523 17
28.8356 16
28.9190 5
29.0023 4
29.0857 28
29.1690 19
29.2523 16
29.3357 10
29.4190 6
29.5024 7
29.5857 22
29.6690 32
29.7524 6
29.8357 6
29.9191 12
30.0024 15
30.0857 10
30.1691 9
30.2524 7
30.3358 23
30.4191 42
30.5024 19
30.5858 8
30.6691 10
30.7525 14
30.8358 2
30.9191 31
31.0025 13
31.0858 4
31.1692 16
31.2525 10
31.3358 16
31.4192 26
31.5025 11
31.5859 28
31.6692 8
31.7525 12
31.8359 11
31.9192 31
32.0026 7
32.0859 43
32.1692 16
32.2526 12
32.3359 12
32.4193 10
32.5026 26
32.5859 25
32.6693 8
32.7526 21
32.8360 17
32.9193 12
33.0026 15
33.0860 2
33.1693 22
33.2527 1
33.3360 26
33.4193 27
33.5027 29
33.5860 56
33.6694 24
33.7527 40
33.8360 22
33.9194 19
34.0027 8
34.0861 7
34.1694 42
34.2527 20
34.3361 3
34.4194 13
34.5028 44
34.5861 1
34.6694 14
34.7528 18
34.8361 14
34.9195 6
35.0028 15
35.0861 30
35.1695 7
35.2528 23
35.3362 11
35.4195 8
35.5028 9
35.5862 16
35.6695 9
35.7529 4
35.8362 10
35.9195 14
36.0029 3
36.0862 21
36.1696 13
36.2529 26
36.3362 17
36.4196 36
36.5029 14
36.5863 4
36.6696 4
36.7529 7
36.8363 23
36.9196 10
37.0030 9
37.0863 38
37.1696 16
37.2530 38
37.3363 7
37.4197 33
37.5030 21
37.5863 3
37.6697 4
37.7530 8
37.8364 35
37.9197 30
38.0030 37
38.0864 16
38.1697 11
38.2531 33
38.3364 10
38.4197 26
38.5031 27
38.5864 25
38.6698 15
38.7531 14
38.8364 21
38.9198 12
39.0031 29
39.0865 15
39.1698 9
39.2531 57
39.3365 28
39.4198 31
39.5032 29
39.5865 27
39.6698 27
39.7532 12
39.8365 11
39.9199 21
40.0032 17
40.0865 9
40.1699 13
40.2532 10
40.3366 0
40.4199 29
40.5032 25
40.5866 11
40.6699 18
40.7533 16
40.8366 26
40.9199 9
41.0033 14
41.0866 10
41.1700 22
41.2533 30
41.3366 28
41.4200 2
41.5033 25
41.5867 12
41.6700 21
41.7533 12
41.8367 18
41.9200 13
42.0034 8
42.0867 14
42.1700 9
42.2534 7
42.3367 15
42.4201 19
42.5034 17
42.5867 26
42.6701 21
42.7534 19
42.8368 6
42.9201 5
43.0034 34
43.0868 37
43.1701 5
43.2535 37
43.3368 2
43.4201 11
43.5035 13
43.5868 11
43.6702 16
43.7535 10
43.8368 2
43.9202 11
44.0035 6
44.0869 3
44.1702 7
44.2535 12
44.3369 15
44.4202 19
44.5036 5
44.5869 11
44.6702 14
44.7536 28
44.8369 15
44.9203 39
45.0036 28
45.0869 24
45.1703 19
45.2536 19
45.3370 13
45.4203 17
45.5036 2
45.5870 11
45.6703 23
45.7537 16
45.8370 15
45.9203 18
46.0037 20
46.0870 14
46.1704 14
46.2537 13
46.3370 20
46.4204 6
46.5037 24
46.5871 16
46.6704 7
46.7537 10
46.8371 7
46.9204 14
47.0038 5
47.0871 7
47.1704 13
47.2538 12
47.3371 11
47.4205 11
47.5038 5
47.5871 13
47.6705 4
47.7538 3
47.8372 25
47.9205 30
48.0038 4
48.0872 10
48.1705 16
48.2539 10
48.3372 13
48.4205 27
48.5039 12
48.5872 21
48.6706 11
48.7539 6
48.8372 14
48.9206 21
49.0039 14
49.0873 43
49.1706 31
49.2539 19
49.3373 17
49.4206 8
49.5040 28
49.5873 20
49.6706 39
49.7540 8
49.8373 15
49.9207 18
50.0040 16
50.0873 12
50.1707 10
50.2540 27
50.3374 3
50.4207 21
50.5040 39
50.5874 28
50.6707 18
50.7541 25
50.8374 7
50.9207 7
51.0041 31
51.0874 24
51.1708 16
51.2541 33
51.3374 11
51.4208 12
51.5041 31
51.5875 9
51.6708 9
51.7541 9
51.8375 25
51.9208 28
52.0042 15
52.0875 24
52.1708 3
52.2542 15
52.3375 9
52.4209 26
52.5042 6
52.5875 15
52.6709 3
52.7542 15
52.8376 4
52.9209 7
53.0042 22
53.0876 16
53.1709 2
53.2543 17
53.3376 14
53.4209 9
53.5043 21
53.5876 16
53.6710 14
53.7543 17
53.8376 23
53.9210 23
54.0043 8
54.0877 15
54.1710 37
54.2543 18
54.3377 49
54.4210 5
54.5044 15
54.5877 26
54.6710 24
54.7544 32
54.8377 13
54.9211 12
55.0044 32
55.0877 13
55.1711 7
55.2544 33
55.3378 31
55.4211 4
55.5044 37
55.5878 31
55.6711 39
55.7545 30
55.8378 14
55.9211 0
56.0045 22
56.0878 15
56.1712 19
56.2545 24
56.3378 5
56.4212 9
56.5045 12
56.5879 48
56.6712 42
56.7545 20
56.8379 24
56.9212 22
57.0046 13
57.0879 38
57.1712 10
57.2546 42
57.3379 32
57.4213 16
57.5046 8
57.5879 5
57.6713 10
57.7546 10
57.8380 19
57.9213 11
58.0046 28
58.0880 15
58.1713 36
58.2547 19
58.3380 15
58.4213 10
58.5047 18
58.5880 37
58.6714 13
58.7547 2
58.8380 5
58.9214 8
59.0047 17
59.0881 22
59.1714 21
59.2547 8
59.3381 7
59.4214 30
59.5048 4
59.5881 12
59.6714 15
59.7548 15
59.8381 22
59.9215 25
60.0048 6
60.0881 17
60.1715 43
60.2548 11
60.3382 33
60.4215 6
60.5048 33
60.5882 11
60.6715 4
60.7549 7
60.8382 16
60.9215 4
61.0049 17
61.0882 16
61.1716 18
61.2549 6
61.3382 13
61.4216 6
61.5049 9
61.5883 25
61.6716 19
61.7549 11
61.8383 18
61.9216 11
62.0050 40
62.0883 24
62.1716 9
62.2550 7
62.3383 7
62.4217 4
62.5050 16
62.5883 13
62.6717 15
62.7550 18
62.8384 11
62.9217 6
63.0050 17
63.0884 25
63.1717 39
63.2551 13
63.3384 10
63.4217 16
63.5051 14
63.5884 16
63.6718 34
63.7551 18
63.8384 12
63.9218 8
64.0051 35
64.0885 10
64.1718 10
64.2551 17
64.3385 18
64.4218 11
64.5052 8
64.5885 1
64.6718 5
64.7552 8
64.8385 11
64.9219 39
65.0052 11
65.0885 23
65.1719 44
65.2552 23
65.3386 14
65.4219 31
65.5052 5
65.5886 27
65.6719 25
65.7553 33
65.8386 10
65.9219 17
66.0053 13
66.0886 13
66.1720 7
66.2553 4
66.3386 10
66.4220 26
66.5053 10
66.5887 23
66.6720 9
66.7553 12
66.8387 3
66.9220 6
67.0054 7
67.0887 13
67.1720 23
67.2554 28
67.3387 9
67.4221 15
67.5054 20
67.5887 9
67.6721 12
67.7554 6
67.8388 12
67.9221 12
68.0054 18
68.0888 17
68.1721 15
68.2555 12
68.3388 30
68.4221 22
68.5055 18
68.5888 28
68.6722 26
68.7555 12
68.8388 37
68.9222 20
69.0055 24
69.0889 26
69.1722 15
69.2555 45
69.3389 44
69.4222 31
69.5056 6
69.5889 12
69.6722 10
69.7556 18
69.8389 25
69.9223 14
70.0056 26
70.0889 19
70.1723 20
70.2556 19
70.3390 7
70.4223 12
70.5056 21
70.5890 16
70.6723 13
70.7557 4
70.8390 3
70.9223 18
71.0057 12
71.0890 7
71.1724 36
71.2557 8
71.3390 5
71.4224 1
71.5057 20
71.5891 38
71.6724 11
71.7557 7
71.8391 15
71.9224 10
72.0058 14
72.0891 41
72.1724 3
72.2558 24
72.3391 16
72.4225 13
72.5058 13
72.5891 35
72.6725 18
72.7558 50
72.8392 32
72.9225 15
73.0058 25
73.0892 2
73.1725 37
73.2559 39
73.3392 22
73.4225 8
73.5059 4
73.5892 12
73.6726 6
73.7559 27
73.8392 13
73.9226 10
74.0059 39
74.0893 27
74.1726 13
74.2559 12
74.3393 14
74.4226 5
74.5060 16
74.5893 13
74.6726 7
74.7560 21
74.8393 33
74.9227 12
75.0060 25
75.0893 24
75.1727 11
75.2560 5
75.3394 10
75.4227 11
75.5060 5
75.5894 8
75.6727 10
75.7561 11
75.8394 12
75.9227 27
76.0061 16
76.0894 5
76.1728 2
76.2561 36
76.3394 14
76.4228 16
76.5061 17
76.5895 34
76.6728 19
76.7561 10
76.8395 18
76.9228 22
77.0062 20
77.0895 24
77.1728 13
77.2562 10
77.3395 8
77.4229 14
77.5062 16
77.5895 10
77.6729 3
77.7562 7
77.8396 6
77.9229 6
78.0062 8
78.0896 20
78.1729 37
78.2563 5
78.3396 1
78.4229 50
78.5063 5
78.5896 8
78.6730 19
78.7563 7
78.8396 11
78.9230 18
79.0063 28
79.0897 5
79.1730 35
79.2563 14
79.3397 5
79.4230 2
79.5064 15
79.5897 11
79.6730 14
79.7564 9
79.8397 16
79.9231 13
80.0064 15
80.0897 24
80.1731 16
80.2564 23
80.3398 17
80.4231 4
80.5064 12
80.5898 7
80.6731 21
80.7565 28
80.8398 20
80.9231 34
81.0065 26
81.0898 21
81.1732 17
81.2565 0
81.3398 12
81.4232 8
81.5065 15
81.5899 6
81.6732 8
81.7565 22
81.8399 18
81.9232 15
82.0066 11
82.0899 21
82.1732 2
82.2566 21
82.3399 31
82.4233 22
82.5066 27
82.5899 22
82.6733 11
82.7566 15
82.8400 7
82.9233 24
83.0066 3
83.0900 2
83.1733 17
83.2567 16
83.3400 9
83.4233 5
83.5067 14
83.5900 27
83.6734 16
83.7567 26
83.8400 16
83.9234 25
84.0067 40
84.0901 13
84.1734 20
84.2567 20
84.3401 17
84.4234 6
84.5068 4
84.5901 30
84.6734 15
84.7568 36
84.8401 1
84.9235 7
85.0068 9
85.0901 8
85.1735 19
85.2568 15
85.3402 20
85.4235 24
85.5068 26
85.5902 7
85.6735 20
85.7569 16
85.8402 7
85.9235 21
86.0069 1
86.0902 18
86.1736 31
86.2569 22
86.3402 8
86.4236 16
86.5069 5
86.5903 8
86.6736 13
86.7569 19
86.8403 30
86.9236 22
87.0070 16
87.0903 7
87.1736 18
87.2570 5
87.3403 11
87.4237 7
87.5070 10
87.5903 9
87.6737 27
87.7570 13
87.8404 9
87.9237 13
88.0070 13
88.0904 13
88.1737 15
88.2571 12
88.3404 15
88.4237 18
88.5071 9
88.5904 14
88.6738 10
88.7571 9
88.8404 4
88.9238 9
89.0071 2
89.0905 27
89.1738 2
89.2571 7
89.3405 8
89.4238 12
89.5072 16
89.5905 18
89.6738 3
89.7572 9
89.8405 11
89.9239 9
90.0072 17
90.0905 13
90.1739 16
90.2572 11
90.3406 13
90.4239 9
90.5072 12
90.5906 19
90.6739 17
90.7573 3
90.8406 9
90.9239 11
91.0073 11
91.0906 14
91.1740 14
91.2573 16
91.3406 47
91.4240 9
91.5073 4
91.5907 12
91.6740 33
91.7573 51
91.8407 20
91.9240 8
92.0074 17
92.0907 17
92.1740 24
92.2574 36
92.3407 9
92.4241 30
92.5074 18
92.5907 20
92.6741 13
92.7574 21
92.8408 24
92.9241 15
93.0074 16
93.0908 29
93.1741 18
93.2575 3
93.3408 8
93.4241 22
93.5075 20
93.5908 10
93.6742 6
93.7575 20
93.8408 40
93.9242 11
94.0075 10
94.0909 32
94.1742 8
94.2575 28
94.3409 19
94.4242 4
94.5076 10
94.5909 13
94.6742 3
94.7576 10
94.8409 16
94.9243 23
95.0076 26
95.0909 9
95.1743 8
95.2576 26
95.3410 12
95.4243 14
95.5076 24
95.5910 45
95.6743 49
95.7577 15
95.8410 4
95.9243 8
96.0077 4
96.0910 7
96.1744 35
96.2577 6
96.3410 5
96.4244 13
96.5077 13
96.5911 24
96.6744 4
96.7577 15
96.8411 27
96.9244 9
97.0078 8
97.0911 35
97.1744 10
97.2578 10
97.3411 2
97.4245 7
97.5078 18
97.5911 11
97.6745 9
97.7578 19
97.8412 13
97.9245 4
98.0078 19
98.0912 9
98.1745 7
98.2579 4
98.3412 6
98.4245 6
98.5079 4
98.5912 13
98.6746 19
98.7579 12
98.8412 2
98.9246 25
99.0079 7
99.0913 17
99.1746 22
99.2579 13
99.3413 1
99.4246 6
99.5080 18
99.5913 21
99.6746 21
99.7580 1
99.8413 6
99.9247 33
100.0080 12
100.0913 31
100.1747 15
100.2580 7
100.3414 30
100.4247 16
100.5080 9
100.5914 13
100.6747 20
100.7581 4
100.8414 11
100.9247 13
101.0081 1
101.0914 14
101.1748 14
101.2581 6
101.3414 27
101.4248 10
101.5081 21
101.5915 24
101.6748 9
101.7581 12
101.8415 27
101.9248 5
102.0082 18
102.0915 18
102.1748 28
102.2582 24
102.3415 23
102.4249 15
102.5082 9
102.5915 16
102.6749 24
102.7582 16
102.8416 23
102.9249 34
103.0082 28
103.0916 14
103.1749 13
103.2583 3
103.3416 27
103.4249 19
103.5083 41
103.5916 14
103.6750 15
103.7583 35
103.8416 8
103.9250 22
104.0083 15
104.0917 2
104.1750 6
104.2583 27
104.3417 18
104.4250 8
104.5084 12
104.5917 17
104.6750 29
104.7584 3
104.8417 8
104.9251 12
105.0084 34
105.0917 21
105.1751 9
105.2584 11
105.3418 15
105.4251 10
105.5084 17
105.5918 2
105.6751 10
105.7585 7
105.8418 32
105.9251 15
106.0085 4
106.0918 8
106.1752 9
106.2585 12
106.3418 18
106.4252 6
106.5085 10
106.5919 14
106.6752 36
106.7585 10
106.8419 24
106.9252 7
107.0086 11
107.0919 24
107.1752 8
107.2586 9
107.3419 6
107.4253 7
107.5086 4
107.5919 19
107.6753 19
107.7586 22
107.8420 20
107.9253 18
108.0086 12
108.0920 12
108.1753 10
108.2587 33
108.3420 19
108.4253 4
108.5087 7
108.5920 12
108.6754 25
108.7587 12
108.8420 13
108.9254 1
109.0087 17
109.0921 4
109.1754 25
109.2587 25
109.3421 16
109.4254 19
109.5088 8
109.5921 7
109.6754 17
109.7588 21
109.8421 23
109.9255 6
110.0088 7
110.0921 19
110.1755 5
110.2588 7
110.3422 37
110.4255 8
110.5088 5
110.5922 23
110.6755 16
110.7589 11
110.8422 22
110.9255 17
111.0089 10
111.0922 26
111.1756 23
111.2589 19
111.3422 18
111.4256 42
111.5089 7
111.5923 6
111.6756 8
111.7589 3
111.8423 2
111.9256 10
112.0090 13
112.0923 17
112.1756 8
112.2590 34
112.3423 11
112.4257 11
112.5090 6
112.5923 21
112.6757 6
112.7590 23
112.8424 19
112.9257 10
113.0090 40
113.0924 17
113.1757 13
113.2591 19
113.3424 21
113.4257 16
113.5091 5
113.5924 23
113.6758 14
113.7591 10
113.8424 15
113.9258 12
114.0091 14
114.0925 14
114.1758 9
114.2591 26
114.3425 11
114.4258 24
114.5092 8
114.5925 15
114.6758 12
114.7592 15
114.8425 15
114.9259 10
115.0092 12
115.0925 20
115.1759 13
115.2592 9
115.3426 19
115.4259 7
115.5092 6
115.5926 23
115.6759 12
115.7593 6
115.8426 15
115.9259 15
116.0093 2
116.0926 13
116.1760 30
116.2593 10
116.3426 13
116.4260 5
116.5093 11
116.5927 4
116.6760 8
116.7593 33
116.8427 21
116.9260 4
117.0094 0
117.0927 26
117.1760 4
117.2594 9
117.3427 13
117.4261 29
117.5094 5
117.5927 12
117.6761 3
117.7594 10
117.8428 21
117.9261 21
118.0094 7
118.0928 3
118.1761 5
118.2595 8
118.3428 11
118.4261 4
118.5095 0
118.5928 5
118.6762 4
118.7595 11
118.8428 14
118.9262 25
119.0095 17
119.0929 26
119.1762 23
119.2595 12
119.3429 5
119.4262 6
119.5096 12
119.5929 22
119.6762 8
119.7596 11
119.8429 2
119.9263 4
120.0096 8
120.0929 8
120.1763 4
120.2596 15
120.3430 3
120.4263 3
120.5096 34
120.5930 6
120.6763 3
120.7597 20
120.8430 6
120.9263 4
121.0097 35
121.0930 28
121.1764 12
121.2597 2
121.3430 14
121.4264 20
121.5097 3
121.5931 6
121.6764 17
121.7597 6
121.8431 4
121.9264 22
122.0098 7
122.0931 18
122.1764 17
122.2598 15
122.3431 16
122.4265 11
122.5098 10
122.5931 10
122.6765 16
122.7598 19
122.8432 9
122.9265 30
123.0098 7
123.0932 14
123.1765 33
123.2599 9
123.3432 11
123.4265 16
123.5099 17
123.5932 14
123.6766 35
123.7599 4
123.8432 4
123.9266 8
124.0099 2
124.0933 20
124.1766 14
124.2599 11
124.3433 15
124.4266 17
124.5100 36
124.5933 9
124.6766 37
124.7600 14
124.8433 21
124.9267 12
125.0100 8
125.0933 18
125.1767 5
125.2600 12
125.3434 8
125.4267 19
125.5100 19
125.5934 10
125.6767 24
125.7601 15
125.8434 10
125.9267 6
126.0101 29
126.0934 20
126.1768 17
126.2601 5
126.3434 20
126.4268 24
126.5101 7
126.5935 25
126.6768 14
126.7601 10
126.8435 9
126.9268 15
127.0102 14
127.0935 8
127.1768 29
127.2602 8
127.3435 2
127.4269 11
127.5102 35
127.5935 11
127.6769 8
127.7602 9
127.8436 11
127.9269 24
128.0102 14
128.0936 9
128.1769 30
128.2603 18
128.3436 8
128.4269 6
128.5103 5
128.5936 22
128.6770 10
128.7603 8
128.8436 14
128.9270 14
129.0103 10
129.0937 6
129.1770 26
129.2603 13
129.3437 30
129.4270 12
129.5104 14
129.5937 19
129.6770 11
129.7604 9
129.8437 26
129.9271 24
130.0104 10
130.0937 8
130.1771 13
130.2604 24
130.3438 26
130.4271 12
130.5104 7
130.5938 13
130.6771 26
130.7605 12
130.8438 18
130.9271 7
131.0105 11
131.0938 13
131.1772 38
131.2605 22
131.3438 1
131.4272 34
131.5105 9
131.5939 10
131.6772 6
131.7605 7
131.8439 19
131.9272 14
132.0106 10
132.0939 15
132.1772 12
132.2606 8
132.3439 13
132.4273 19
132.5106 27
132.5939 5
132.6773 30
132.7606 3
132.8440 10
132.9273 33
133.0106 18
133.0940 9
133.1773 18
133.2607 5
133.3440 7
133.4273 6
133.5107 8
133.5940 20
133.6774 30
133.7607 18
133.8440 16
133.9274 17
134.0107 3
134.0941 15
134.1774 9
134.2607 5
134.3441 7
134.4274 19
134.5108 10
134.5941 13
134.6774 18
134.7608 10
134.8441 32
134.9275 6
135.0108 12
135.0941 38
135.1775 4
135.2608 23
135.3442 11
135.4275 18
135.5108 14
135.5942 39
135.6775 14
135.7609 27
135.8442 13
135.9275 13
136.0109 16
136.0942 22
136.1776 29
136.2609 12
136.3442 10
136.4276 12
136.5109 5
136.5943 6
136.6776 14
136.7609 16
136.8443 3
136.9276 5
137.0110 8
137.0943 24
137.1776 9
137.2610 1
137.3443 30
137.4277 14
137.5110 9
137.5943 27
137.6777 14
137.7610 24
137.8444 21
137.9277 3
138.0110 3
138.0944 20
138.1777 12
138.2611 17
138.3444 17
138.4277 6
138.5111 20
138.5944 12
138.6778 7
138.7611 16
138.8444 44
138.9278 2
139.0111 6
139.0945 2
139.1778 16
139.2611 3
139.3445 24
139.4278 5
139.5112 14
139.5945 12
139.6778 7
139.7612 17
139.8445 12
139.9279 17
140.0112 27
140.0945 14
140.1779 30
140.2612 14
140.3446 18
140.4279 10
140.5112 13
140.5946 14
140.6779 31
140.7613 12
140.8446 11
140.9279 40
141.0113 13
141.0946 8
141.1780 21
141.2613 4
141.3446 36
141.4280 23
141.5113 8
141.5947 11
141.6780 18
141.7613 8
141.8447 28
141.9280 17
142.0114 47
142.0947 3
142.1780 20
142.2614 5
142.3447 10
142.4281 9
142.5114 6
142.5947 20
142.6781 13
142.7614 12
142.8448 11
142.9281 11
143.0114 15
143.0948 16
143.1781 9
143.2615 24
143.3448 15
143.4281 7
143.5115 11
143.5948 11
143.6782 34
143.7615 11
143.8448 4
143.9282 7
144.0115 17
144.0949 19
144.1782 14
144.2615 4
144.3449 21
144.4282 27
144.5116 3
144.5949 17
144.6782 31
144.7616 21
144.8449 5
144.9283 3
145.0116 38
145.0949 23
145.1783 11
145.2616 9
145.3450 6
145.4283 11
145.5116 13
145.5950 36
145.6783 7
145.7617 22
145.8450 18
145.9283 9
146.0117 26
146.0950 26
146.1784 22
146.2617 2
146.3450 8
146.4284 14
146.5117 0
146.5951 3
146.6784 10
146.7617 22
146.8451 7
146.9284 10
147.0118 6
147.0951 11
147.1784 6
147.2618 22
147.3451 4
147.4285 27
147.5118 6
147.5951 3
147.6785 13
147.7618 10
147.8452 14
147.9285 8
148.0118 29
148.0952 13
148.1785 12
148.2619 21
148.3452 2
148.4285 11
148.5119 7
148.5952 38
148.6786 9
148.7619 14
148.8452 8
148.9286 10
149.0119 16
149.0953 4
149.1786 19
149.2619 8
149.3453 8
149.4286 5
149.5120 23
149.5953 17
149.6786 17
149.7620 14
149.8453 8
149.9287 8
150.0120 8
150.0953 14
150.1787 13
150.2620 8
150.3454 15
150.4287 42
150.5120 4
150.5954 4
150.6787 9
150.7621 29
150.8454 11
150.9287 21
151.0121 15
151.0954 37
151.1788 4
151.2621 47
151.3454 42
151.4288 13
151.5121 1
151.5955 0
151.6788 12
151.7621 13
151.8455 11
151.9288 17
152.0122 20
152.0955 21
152.1788 24
152.2622 7
152.3455 10
152.4289 4
152.5122 6
152.5955 11
152.6789 10
152.7622 6
152.8456 4
152.9289 24
153.0122 20
153.0956 11
153.1789 0
153.2623 0
153.3456 28
153.4289 23
153.5123 13
153.5956 24
153.6790 6
153.7623 27
153.8456 18
153.9290 9
154.0123 12
154.0957 6
154.1790 5
154.2623 4
154.3457 11
154.4290 12
154.5124 14
154.5957 17
154.6790 10
154.7624 15
154.8457 16
154.9291 9
155.0124 10
155.0957 37
155.1791 12
155.2624 5
155.3458 7
155.4291 24
155.5124 13
155.5958 29
155.6791 15
155.7625 10
155.8458 3
155.9291 43
156.0125 24
156.0958 33
156.1792 29
156.2625 28
156.3458 8
156.4292 19
156.5125 9
156.5959 15
156.6792 12
156.7625 24
156.8459 1
156.9292 9
157.0126 5
157.0959 12
157.1792 7
157.2626 13
157.3459 18
157.4293 26
157.5126 16
157.5959 8
157.6793 3
157.7626 4
157.8460 2
157.9293 4
158.0126 12
158.0960 17
158.1793 7
158.2627 22
158.3460 5
158.4293 19
158.5127 9
158.5960 9
158.6794 23
158.7627 9
158.8460 12
158.9294 9
159.0127 10
159.0961 50
159.1794 3
159.2627 15
159.3461 20
159.4294 22
159.5128 18
159.5961 2
159.6794 18
159.7628 12
159.8461 14
159.9295 8
160.0128 6
160.0961 32
160.1795 12
160.2628 10
160.3462 13
160.4295 35
160.5128 10
160.5962 10
160.6795 7
160.7629 13
160.8462 12
160.9295 11
161.0129 10
161.0962 10
161.1796 14
161.2629 14
161.3462 3
161.4296 14
161.5129 16
161.5963 18
161.6796 13
161.7629 12
161.8463 9
161.9296 40
162.0130 3
162.0963 8
162.1796 9
162.2630 10
162.3463 30
162.4297 16
162.5130 6
162.5963 10
162.6797 11
162.7630 19
162.8464 2
162.9297 30
163.0130 18
163.0964 22
163.1797 10
163.2631 14
163.3464 21
163.4297 11
163.5131 3
163.5964 23
163.6798 11
163.7631 23
163.8464 15
163.9298 9
164.0131 12
164.0965 20
164.1798 29
164.2631 12
164.3465 5
164.4298 7
164.5132 10
164.5965 8
164.6798 6
164.7632 16
164.8465 15
164.9299 5
165.0132 22
165.0965 10
165.1799 8
165.2632 6
165.3466 11
165.4299 11
165.5132 18
165.5966 5
165.6799 4
165.7633 9
165.8466 10
165.9299 13
166.0133 25
166.0966 5
166.1800 45
166.2633 16
166.3466 4
166.4300 31
166.5133 9
166.5967 11
166.6800 5
166.7633 27
166.8467 13
166.9300 24
167.0134 14
167.0967 9
167.1800 31
167.2634 18
167.3467 2
167.4301 20
167.5134 18
167.5967 2
167.6801 19
167.7634 5
167.8468 19
167.9301 25
168.0134 16
168.0968 2
168.1801 9
168.2635 18
168.3468 6
168.4301 6
168.5135 18
168.5968 18
168.6802 14
168.7635 23
168.8468 13
168.9302 18
169.0135 11
169.0969 27
169.1802 21
169.2635 10
169.3469 6
169.4302 23
169.5136 2
169.5969 34
169.6802 21
169.7636 7
169.8469 12
169.9303 3
170.0136 18
170.0969 12
170.1803 2
170.2636 9
170.3470 10
170.4303 15
170.5136 6
170.5970 13
170.6803 21
170.7637 45
170.8470 17
170.9303 15
171.0137 10
171.0970 21
171.1804 2
171.2637 6
171.3470 14
171.4304 7
171.5137 13
171.5971 39
171.6804 9
171.7637 18
171.8471 32
171.9304 12
172.0138 4
172.0971 4
172.1804 16
172.2638 10
172.3471 5
172.4305 4
172.5138 9
172.5971 19
172.6805 12
172.7638 22
172.8472 44
172.9305 25
173.0138 14
173.0972 6
173.1805 7
173.2639 25
173.3472 2
173.4305 7
173.5139 17
173.5972 11
173.6806 10
173.7639 16
173.8472 15
173.9306 24
174.0139 12
174.0973 28
174.1806 10
174.2639 14
174.3473 25
174.4306 22
174.5140 10
174.5973 9
174.6806 15
174.7640 8
174.8473 10
174.9307 12
175.0140 6
175.0973 34
175.1807 42
175.2640 9
175.3474 2
175.4307 0
175.5140 12
175.5974 9
175.6807 11
175.7641 9
175.8474 29
175.9307 19
176.0141 15
176.0974 17
176.1808 5
176.2641 8
176.3474 26
176.4308 13
176.5141 15
176.5975 10
176.6808 53
176.7641 4
176.8475 14
176.9308 16
177.0142 23
177.0975 16
177.1808 30
177.2642 36
177.3475 13
177.4309 13
177.5142 39
177.5975 16
177.6809 22
177.7642 4
177.8476 20
177.9309 19
178.0142 11
178.0976 16
178.1809 12
178.2643 15
178.3476 28
178.4309 24
178.5143 33
178.5976 24
178.6810 15
178.7643 21
178.8476 5
178.9310 26
179.0143 17
179.0977 14
179.1810 12
179.2643 2
179.3477 16
179.4310 25
179.5144 7
179.5977 13
179.6810 1
179.7644 19
179.8477 31
179.9311 9
180.0144 10
180.0977 4
180.1811 12
180.2644 2
180.3478 9
180.4311 4
180.5144 7
180.5978 1
180.6811 4
180.7645 17
180.8478 23
180.9311 24
181.0145 8
181.0978 11
181.1812 12
181.2645 23
181.3478 7
181.4312 8
181.5145 3
181.5979 10
181.6812 24
181.7645 10
181.8479 19
181.9312 20
182.0146 14
182.0979 33
182.1812 14
182.2646 4
182.3479 13
182.4313 5
182.5146 15
182.5979 20
182.6813 19
182.7646 9
182.8480 9
182.9313 7
183.0146 5
183.0980 17
183.1813 17
183.2647 23
183.3480 8
183.4313 26
183.5147 18
183.5980 16
183.6814 11
183.7647 18
183.8480 19
183.9314 8
184.0147 18
184.0981 17
184.1814 33
184.2647 17
184.3481 6
184.4314 50
184.5148 9
184.5981 7
184.6814 51
184.7648 28
184.8481 8
184.9315 2
185.0148 18
185.0981 23
185.1815 8
185.2648 13
185.3482 17
185.4315 35
185.5148 8
185.5982 8
185.6815 30
185.7649 33
185.8482 3
185.9315 7
186.0149 21
186.0982 1
186.1816 42
186.2649 8
186.3482 1
186.4316 2
186.5149 8
186.5983 6
186.6816 13
186.7649 21
186.8483 6
186.9316 14
187.0150 11
187.0983 15
187.1816 10
187.2650 15
187.3483 23
187.4317 16
187.5150 5
187.5983 7
187.6817 8
187.7650 29
187.8484 23
187.9317 19
188.0150 18
188.0984 8
188.1817 16
188.2651 12
188.3484 19
188.4317 28
188.5151 25
188.5984 18
188.6818 32
188.7651 4
188.8484 17
188.9318 28
189.0151 16
189.0985 28
189.1818 28
189.2651 7
189.3485 12
189.4318 16
189.5152 10
189.5985 37
189.6818 12
189.7652 10
189.8485 27
189.9319 20
190.0152 27
190.0985 44
190.1819 24
190.2652 8
190.3486 11
190.4319 21
190.5152 5
190.5986 20
190.6819 37
190.7653 12
190.8486 15
190.9319 24
191.0153 7
191.0986 24
191.1820 27
191.2653 15
191.3486 39
191.4320 14
191.5153 9
191.5987 42
191.6820 12
191.7653 6
191.8487 12
191.9320 17
192.0154 22
192.0987 8
192.1820 14
192.2654 17
192.3487 7
192.4321 15
192.5154 4
192.5987 14
192.6821 49
192.7654 13
192.8488 13
192.9321 30
193.0154 16
193.0988 13
193.1821 21
193.2655 27
193.3488 15
193.4321 15
193.5155 6
193.5988 10
193.6822 6
193.7655 18
193.8488 25
193.9322 22
194.0155 18
194.0989 16
194.1822 15
194.2655 6
194.3489 13
194.4322 5
194.5156 11
194.5989 9
194.6822 22
194.7656 22
194.8489 14
194.9323 37
195.0156 8
195.0989 19
195.1823 19
195.2656 15
195.3490 7
195.4323 14
195.5156 19
195.5990 16
195.6823 13
195.7657 11
195.8490 22
195.9323 13
196.0157 12
196.0990 19
196.1824 9
196.2657 20
196.3490 17
196.4324 6
196.5157 22
196.5991 7
196.6824 30
196.7657 18
196.8491 24
196.9324 24
197.0158 17
197.0991 23
197.1824 10
197.2658 14
197.3491 14
197.4325 7
197.5158 11
197.5991 6
197.6825 15
197.7658 24
197.8492 45
197.9325 7
198.0158 16
198.0992 4
198.1825 40
198.2659 13
198.3492 7
198.4325 20
198.5159 28
198.5992 16
198.6826 16
198.7659 18
198.8492 2
198.9326 6
199.0159 22
199.0993 26
199.1826 6
199.2659 10
199.3493 12
199.4326 18
199.5160 5
199.5993 15
199.6826 19
199.7660 18
199.8493 7
199.9327 8
200.0160 12
200.0993 12
200.1827 18
200.2660 27
200.3494 14
200.4327 4
200.5160 16
200.5994 10
200.6827 8
200.7661 8
200.8494 27
200.9327 5
201.0161 11
201.0994 9
201.1828 1
201.2661 14
201.3494 11
201.4328 19
201.5161 34
201.5995 24
201.6828 11
201.7661 33
201.8495 8
201.9328 13
202.0162 18
202.0995 20
202.1828 16
202.2662 18
202.3495 11
202.4329 22
202.5162 25
202.5995 16
202.6829 24
202.7662 10
202.8496 11
202.9329 7
203.0162 14
203.0996 12
203.1829 20
203.2663 11
203.3496 7
203.4329 8
203.5163 8
203.5996 25
203.6830 33
203.7663 23
203.8496 5
203.9330 5
204.0163 20
204.0997 24
204.1830 12
204.2663 17
204.3497 6
204.4330 8
204.5164 5
204.5997 8
204.6830 18
204.7664 48
204.8497 35
204.9331 5
205.0164 26
205.0997 24
205.1831 23
205.2664 10
205.3498 11
205.4331 13
205.5164 12
205.5998 5
205.6831 20
205.7665 16
205.8498 6
205.9331 13
206.0165 5
206.0998 17
206.1832 4
206.2665 9
206.3498 20
206.4332 10
206.5165 21
206.5999 16
206.6832 8
206.7665 20
206.8499 9
206.9332 13
207.0166 20
207.0999 15
207.1832 32
207.2666 14
207.3499 18
207.4333 10
207.5166 24
207.5999 23
207.6833 19
207.7666 24
207.8500 18
207.9333 20
208.0166 12
208.1000 22
208.1833 30
208.2667 29
208.3500 8
208.4333 19
208.5167 10
208.6000 25
208.6834 11
208.7667 13
208.8500 23
208.9334 21
209.0167 21
209.1001 17
209.1834 21
209.2667 26
209.3501 18
209.4334 13
209.5168 29
209.6001 10
209.6834 17
209.7668 15
209.8501 20
209.9335 14
210.0168 13
210.1001 13
210.1835 10
210.2668 17
210.3502 16
210.4335 16
210.5168 11
210.6002 18
210.6835 8
210.7669 13
210.8502 11
210.9335 7
211.0169 19
211.1002 27
211.1836 3
211.2669 18
211.3502 21
211.4336 5
211.5169 2
211.6003 3
211.6836 10
211.7669 10
211.8503 17
211.9336 36
212.0170 9
212.1003 12
212.1836 10
212.2670 13
212.3503 22
212.4337 9
212.5170 21
212.6003 33
212.6837 24
212.7670 7
212.8504 24
212.9337 5
213.0170 18
213.1004 19
213.1837 13
213.2671 27
213.3504 28
213.4337 13
213.5171 28
213.6004 15
213.6838 8
213.7671 16
213.8504 20
213.9338 23
214.0171 11
214.1005 13
214.1838 9
214.2671 8
214.3505 37
214.4338 32
214.5172 25
214.6005 31
214.6838 10
214.7672 9
214.8505 31
214.9339 20
215.0172 27
215.1005 20
215.1839 11
215.2672 16
215.3506 10
215.4339 15
215.5172 8
215.6006 12
215.6839 18
215.7673 28
215.8506 33
215.9339 26
216.0173 29
216.1006 7
216.1840 4
216.2673 7
216.3506 17
216.4340 28
216.5173 10
216.6007 8
216.6840 30
216.7673 34
216.8507 7
216.9340 13
217.0174 2
217.1007 8
217.1840 37
217.2674 17
217.3507 19
217.4341 8
217.5174 13
217.6007 26
217.6841 16
217.7674 14
217.8508 31
217.9341 10
218.0174 9
218.1008 10
218.1841 19
218.2675 40
218.3508 8
218.4341 26
218.5175 48
218.6008 20
218.6842 19
218.7675 5
218.8508 18
218.9342 8
219.0175 34
219.1009 9
219.1842 48
219.2675 19
219.3509 14
219.4342 14
219.5176 34
219.6009 11
219.6842 19
219.7676 24
219.8509 11
219.9343 14
220.0176 23
220.1009 14
220.1843 22
220.2676 12
220.3510 19
220.4343 8
220.5176 22
220.6010 10
220.6843 18
220.7677 23
220.8510 37
220.9343 8
221.0177 25
221.1010 19
221.1844 27
221.2677 27
221.3510 21
221.4344 13
221.5177 11
221.6011 8
221.6844 11
221.7677 7
221.8511 32
221.9344 34
222.0178 11
222.1011 11
222.1844 5
222.2678 16
222.3511 14
222.4345 15
222.5178 19
222.6011 68
222.6845 42
222.7678 8
222.8512 9
222.9345 3
223.0178 19
223.1012 47
223.1845 4
223.2679 16
223.3512 17
223.4345 12
223.5179 17
223.6012 47
223.6846 17
223.7679 20
223.8512 11
223.9346 15
224.0179 15
224.1013 19
224.1846 22
224.2679 15
224.3513 14
224.4346 10
224.5180 21
224.6013 14
224.6846 43
224.7680 27
224.8513 16
224.9347 24
225.0180 23
225.1013 28
225.1847 33
225.2680 10
225.3514 25
225.4347 18
225.5180 24
225.6014 25
225.6847 14
225.7681 19
225.8514 36
225.9347 26
226.0181 35
226.1014 27
226.1848 16
226.2681 24
226.3514 19
226.4348 14
226.5181 29
226.6015 21
226.6848 18
226.7681 17
226.8515 30
226.9348 51
227.0182 21
227.1015 15
227.1848 50
227.2682 15
227.3515 13
227.4349 37
227.5182 26
227.6015 22
227.6849 18
227.7682 4
227.8516 21
227.9349 20
228.0182 26
228.1016 14
228.1849 32
228.2683 21
228.3516 37
228.4349 40
228.5183 16
228.6016 28
228.6850 6
228.7683 6
228.8516 28
228.9350 14
229.0183 24
229.1017 20
229.1850 17
229.2683 11
229.3517 12
229.4350 30
229.5184 17
229.6017 5
229.6850 12
229.7684 33
229.8517 15
229.9351 20
230.0184 13
230.1017 12
230.1851 15
230.2684 20
230.3518 28
230.4351 45
230.5184 48
230.6018 20
230.6851 24
230.7685 10
230.8518 14
230.9351 11
231.0185 51
231.1018 27
231.1852 27
231.2685 10
231.3518 13
231.4352 34
231.5185 36
231.6019 21
231.6852 22
231.7685 25
231.8519 33
231.9352 50
232.0186 19
232.1019 14
232.1852 36
232.2686 45
232.3519 16
232.4353 10
232.5186 20
232.6019 42
232.6853 14
232.7686 10
232.8520 20
232.9353 8
233.0186 15
233.1020 42
233.1853 18
233.2687 16
233.3520 38
233.4353 11
233.5187 32
233.6020 9
233.6854 7
233.7687 26
233.8520 43
233.9354 23
234.0187 4
234.1021 28
234.1854 22
234.2687 26
234.3521 18
234.4354 36
234.5188 20
234.6021 29
234.6854 19
234.7688 15
234.8521 5
234.9355 16
235.0188 15
235.1021 28
235.1855 15
235.2688 21
235.3522 26
235.4355 23
235.5188 18
235.6022 14
235.6855 19
235.7689 37
235.8522 28
235.9355 12
236.0189 51
236.1022 16
236.1856 36
236.2689 24
236.3522 13
236.4356 18
236.5189 38
236.6023 32
236.6856 23
236.7689 46
236.8523 19
236.9356 21
237.0190 26
237.1023 32
237.1856 45
237.2690 18
237.3523 22
237.4357 36
237.5190 26
237.6023 15
237.6857 34
237.7690 23
237.8524 20
237.9357 19
238.0190 15
238.1024 56
238.1857 37
238.2691 30
238.3524 32
238.4357 30
238.5191 14
238.6024 29
238.6858 23
238.7691 42
238.8524 14
238.9358 46
239.0191 20
239.1025 6
239.1858 21
239.2691 11
239.3525 15
239.4358 18
239.5192 13
239.6025 6
239.6858 13
239.7692 26
239.8525 20
239.9359 14
240.0192 40
240.1025 14
240.1859 18
240.2692 29
240.3526 22
240.4359 24
240.5192 23
240.6026 31
240.6859 41
240.7693 11
240.8526 24
240.9359 25
241.0193 64
241.1026 32
241.1860 44
241.2693 33
241.3526 27
241.4360 12
241.5193 32
241.6027 40
241.6860 34
241.7693 55
241.8527 46
241.9360 30
242.0194 32
242.1027 34
242.1860 23
242.2694 34
242.3527 48
242.4361 41
242.5194 46
242.6027 32
242.6861 46
242.7694 32
242.8528 19
242.9361 47
243.0194 43
243.1028 29
243.1861 51
243.2695 50
243.3528 27
243.4361 32
243.5195 15
243.6028 33
243.6862 28
243.7695 18
243.8528 52
243.9362 33
244.0195 24
244.1029 33
244.1862 13
244.2695 11
244.3529 32
244.4362 10
244.5196 21
244.6029 7
244.6862 6
244.7696 30
244.8529 31
244.9363 28
245.0196 23
245.1029 21
245.1863 32
245.2696 32
245.3530 32
245.4363 24
245.5196 37
245.6030 30
245.6863 24
245.7697 45
245.8530 8
245.9363 9
246.0197 15
246.1030 20
246.1864 26
246.2697 32
246.3530 25
246.4364 41
246.5197 25
246.6031 29
246.6864 25
246.7697 49
246.8531 31
246.9364 34
247.0198 34
247.1031 31
247.1864 34
247.2698 54
247.3531 49
247.4365 54
247.5198 57
247.6031 66
247.6865 37
247.7698 40
247.8532 37
247.9365 59
248.0198 52
248.1032 30
248.1865 42
248.2699 38
248.3532 62
248.4365 35
248.5199 38
248.6032 21
248.6866 17
248.7699 21
248.8532 37
248.9366 25
249.0199 36
249.1033 28
249.1866 13
249.2699 28
249.3533 44
249.4366 14
249.5200 31
249.6033 31
249.6866 24
249.7700 28
249.8533 13
249.9367 33
250.0200 13
250.1033 13
250.1867 19
250.2700 37
250.3534 7
250.4367 18
250.5200 9
250.6034 34
250.6867 14
250.7701 19
250.8534 15
250.9367 15
251.0201 6
251.1034 25
251.1868 47
251.2701 28
251.3534 27
251.4368 20
251.5201 45
251.6035 24
251.6868 23
251.7701 41
251.8535 27
251.9368 60
252.0202 35
252.1035 32
252.1868 45
252.2702 63
252.3535 62
252.4369 42
252.5202 41
252.6035 45
252.6869 69
252.7702 57
252.8536 55
252.9369 49
253.0202 95
253.1036 39
253.1869 76
253.2703 50
253.3536 51
253.4369 68
253.5203 65
253.6036 71
253.6870 40
253.7703 68
253.8536 73
253.9370 38
254.0203 79
254.1037 54
254.1870 41
254.2703 47
254.3537 54
254.4370 41
254.5204 40
254.6037 30
254.6870 34
254.7704 28
254.8537 23
254.9371 25
255.0204 19
255.1037 39
255.1871 47
255.2704 16
255.3538 21
255.4371 22
255.5204 12
255.6038 22
255.6871 11
255.7705 15
255.8538 14
255.9371 12
256.0205 13
256.1038 17
256.1872 17
256.2705 18
256.3538 14
256.4372 24
256.5205 21
256.6039 17
256.6872 22
256.7705 27
256.8539 15
256.9372 39
257.0206 22
257.1039 44
257.1872 29
257.2706 51
257.3539 31
257.4373 44
257.5206 38
257.6039 62
257.6873 28
257.7706 54
257.8540 63
257.9373 82
258.0206 80
258.1040 67
258.1873 76
258.2707 67
258.3540 78
258.4373 79
258.5207 78
258.6040 66
258.6874 88
258.7707 81
258.8540 92
258.9374 91
259.0207 69
259.1041 59
259.1874 64
259.2707 88
259.3541 53
259.4374 91
259.5208 60
259.6041 49
259.6874 40
259.7708 58
259.8541 57
259.9375 38
260.0208 46
260.1041 52
260.1875 46
260.2708 66
260.3542 43
260.4375 38
260.5208 25
260.6042 42
260.6875 46
260.7709 33
260.8542 25
260.9375 69
261.0209 8
261.1042 16
261.1876 9
261.2709 12
261.3542 16
261.4376 9
261.5209 23
261.6043 23
261.6876 14
261.7709 26
261.8543 35
261.9376 29
262.0210 17
262.1043 33
262.1876 26
262.2710 19
262.3543 60
262.4377 26
262.5210 30
262.6043 37
262.6877 52
262.7710 53
262.8544 49
262.9377 48
263.0210 45
263.1044 59
263.1877 96
263.2711 86
263.3544 118
263.4377 89
263.5211 90
263.6044 85
263.6878 84
263.7711 100
263.8544 85
263.9378 100
264.0211 106
264.1045 89
264.1878 91
264.2711 108
264.3545 98
264.4378 128
264.5212 114
264.6045 95
264.6878 82
264.7712 93
264.8545 130
264.9379 81
265.0212 107
265.1045 72
265.1879 83
265.2712 109
265.3546 93
265.4379 84
265.5212 71
265.6046 72
265.6879 66
265.7713 81
265.8546 61
265.9379 50
266.0213 44
266.1046 67
266.1880 36
266.2713 25
266.3546 48
266.4380 48
266.5213 25
266.6047 42
266.6880 30
266.7713 16
266.8547 16
266.9380 25
267.0214 7
267.1047 9
267.1880 7
267.2714 18
267.3547 22
267.4381 4
267.5214 19
267.6047 29
267.6881 15
267.7714 26
267.8548 30
267.9381 43
268.0214 38
268.1048 62
268.1881 46
268.2715 41
268.3548 43
268.4381 66
268.5215 56
268.6048 86
268.6882 85
268.7715 89
268.8548 94
268.9382 97
269.0215 118
269.1049 110
269.1882 94
269.2715 122
269.3549 84
269.4382 94
269.5216 125
269.6049 124
269.6882 130
269.7716 132
269.8549 154
269.9383 161
270.0216 144
270.1049 107
270.1883 119
270.2716 117
270.3550 135
270.4383 119
270.5216 130
270.6050 110
270.6883 115
270.7717 111
270.8550 86
270.9383 96
271.0217 78
271.1050 87
271.1884 113
271.2717 107
271.3550 96
271.4384 78
271.5217 72
271.6051 73
271.6884 55
271.7717 66
271.8551 39
271.9384 29
272.0218 31
272.1051 33
272.1884 48
272.2718 37
272.3551 15
272.4385 30
272.5218 37
272.6051 12
272.6885 20
272.7718 17
272.8552 36
272.9385 33
273.0218 10
273.1052 14
273.1885 33
273.2719 32
273.3552 37
273.4385 23
273.5219 40
273.6052 49
273.6886 52
273.7719 58
273.8552 64
273.9386 92
274.0219 70
274.1053 108
274.1886 89
274.2719 83
274.3553 103
274.4386 117
274.5220 143
274.6053 130
274.6886 158
274.7720 164
274.8553 144
274.9387 144
275.0220 151
275.1053 164
275.1887 173
275.2720 138
275.3554 156
275.4387 190
275.5220 178
275.6054 202
275.6887 173
275.7721 215
275.8554 177
275.9387 185
276.0221 187
276.1054 178
276.1888 159
276.2721 143
276.3554 198
276.4388 126
276.5221 133
276.6055 135
276.6888 142
276.7721 111
276.8555 150
276.9388 110
277.0222 89
277.1055 72
277.1888 71
277.2722 37
277.3555 45
277.4389 42
277.5222 58
277.6055 59
277.6889 60
277.7722 27
277.8556 29
277.9389 21
278.0222 44
278.1056 23
278.1889 29
278.2723 36
278.3556 19
278.4389 15
278.5223 51
278.6056 31
278.6890 80
278.7723 75
278.8556 40
278.9390 63
279.0223 73
279.1057 65
279.1890 87
279.2723 146
279.3557 153
279.4390 138
279.5224 127
279.6057 147
279.6890 159
279.7724 183
279.8557 161
279.9391 162
280.0224 180
280.1057 208
280.1891 252
280.2724 276
280.3558 255
280.4391 248
280.5224 251
280.6058 214
280.6891 229
280.7725 256
280.8558 313
280.9391 320
281.0225 279
281.1058 276
281.1892 272
281.2725 223
281.3558 277
281.4392 264
281.5225 257
281.6059 265
281.6892 221
281.7725 245
281.8559 220
281.9392 207
282.0226 194
282.1059 151
282.1892 186
282.2726 156
282.3559 152
282.4393 121
282.5226 127
282.6059 105
282.6893 73
282.7726 50
282.8560 79
282.9393 63
283.0226 56
283.1060 47
283.1893 29
283.2727 24
283.3560 50
283.4393 32
283.5227 25
283.6060 33
283.6894 23
283.7727 31
283.8560 71
283.9394 49
284.0227 75
284.1061 100
284.1894 102
284.2727 90
284.3561 134
284.4394 105
284.5228 127
284.6061 213
284.6894 206
284.7728 232
284.8561 212
284.9395 232
285.0228 273
285.1061 312
285.1895 345
285.2728 296
285.3562 411
285.4395 429
285.5228 380
285.6062 443
285.6895 486
285.7729 500
285.8562 516
285.9395 496
286.0229 462
286.1062 520
286.1896 556
286.2729 576
286.3562 537
286.4396 480
286.5229 567
286.6063 585
286.6896 507
286.7729 536
286.8563 465
286.9396 498
287.0230 437
287.1063 470
287.1896 370
287.2730 414
287.3563 399
287.4397 364
287.5230 351
287.6063 331
287.6897 314
287.7730 257
287.8564 270
287.9397 241
288.0230 184
288.1064 156
288.1897 111
288.2731 123
288.3564 79
288.4397 83
288.5231 84
288.6064 60
288.6898 60
288.7731 60
288.8564 44
288.9398 27
289.0231 42
289.1065 63
289.1898 80
289.2731 115
289.3565 100
289.4398 109
289.5232 131
289.6065 166
289.6898 196
289.7732 256
289.8565 307
289.9399 359
290.0232 366
290.1065 408
290.1899 487
290.2732 500
290.3566 590
290.4399 592
290.5232 642
290.6066 747
290.6899 717
290.7733 897
290.8566 909
290.9399 940
291.0233 993
291.1066 1074
291.1900 1086
291.2733 1071
291.3566 1169
291.4400 1179
291.5233 1177
291.6067 1201
291.6900 1099
291.7733 1243
291.8567 1169
291.9400 1230
292.0234 1231
292.1067 1235
292.1900 1172
292.2734 1145
292.3567 1009
292.4401 1061
292.5234 1045
292.6067 1025
292.6901 934
292.7734 977
292.8568 823
292.9401 811
293.0234 682
293.1068 741
293.1901 648
293.2735 543
293.3568 448
293.4401 449
293.5235 340
293.6068 297
293.6902 214
293.7735 237
293.8568 195
293.9402 160
294.0235 105
294.1069 74
294.1902 67
294.2735 74
294.3569 56
294.4402 77
294.5236 113
294.6069 116
294.6902 166
294.7736 215
294.8569 321
294.9403 420
295.0236 497
295.1069 580
295.1903 682
295.2736 822
295.3570 909
295.4403 1070
295.5236 1298
295.6070 1391
295.6903 1608
295.7737 1799
295.8570 2074
295.9403 2159
296.0237 2408
296.1070 2590
296.1904 2667
296.2737 2960
296.3570 3239
296.4404 3401
296.5237 3600
296.6071 3798
296.6904 3996
296.7737 4053
296.8571 4225
296.9404 4332
297.0238 4463
297.1071 4668
297.1904 4775
297.2738 4794
297.3571 4764
297.4405 4955
297.5238 4950
297.6071 5072
297.6905 5011
297.7738 4945
297.8572 4700
297.9405 4773
298.0238 4737
298.1072 4674
298.1905 4499
298.2739 4474
298.3572 3999
298.4405 3893
298.5239 3667
298.6072 3454
298.6906 3268
298.7739 2801
298.8572 2813
298.9406 2545
299.0239 2211
299.1073 2079
299.1906 1721
299.2739 1632
299.3573 1395
299.4406 1121
299.5240 938
299.6073 872
299.6906 727
299.7740 662
299.8573 610
299.9407 639
300.0240 669
300.1073 882
300.1907 991
300.2740 1157
300.3574 1575
300.4407 1927
300.5240 2409
300.6074 2816
300.6907 3473
300.7741 4127
300.8574 5100
300.9407 5709
301.0241 6835
301.1074 8074
301.1908 9305
301.2741 10624
301.3574 11417
301.4408 13246
301.5241 14832
301.6075 16596
301.6908 18044
301.7741 20201
301.8575 22448
301.9408 24454
302.0242 26353
302.1075 28895
302.1908 31588
302.2742 33820
302.3575 36406
302.4409 38119
302.5242 41010
302.6075 42982
302.6909 45957
302.7742 48100
302.8576 51063
302.9409 53864
303.0242 56608
303.1076 59440
303.1909 61871
303.2743 64430
303.3576 67605
303.4409 69586
303.5243 72192
303.6076 74042
303.6910 76988
303.7743 80344
303.8576 82711
303.9410 85499
304.0243 87766
304.1077 89199
304.1910 91747
304.2743 92873
304.3577 94511
304.4410 97233
304.5244 98040
304.6077 100417
304.6910 101584
304.7744 102164
304.8577 103238
304.9411 103971
305.0244 105011
305.1077 105681
305.1911 106024
305.2744 105888
305.3578 106156
305.4411 105648
305.5244 106591
305.6078 105920
305.6911 105007
305.7745 102228
305.8578 102714
305.9411 101104
306.0245 100597
306.1078 99965
306.1912 99024
306.2745 97368
306.3578 94948
306.4412 92805
306.5245 92219
306.6079 90027
306.6912 88568
306.7745 85217
306.8579 83084
306.9412 81192
307.0246 79243
307.1079 75851
307.1912 73661
307.2746 71838
307.3579 69330
307.4413 67404
307.5246 64742
307.6079 62710
307.6913 58665
307.7746 56928
307.8580 53471
307.9413 51667
308.0246 49371
308.1080 46554
308.1913 44191
308.2747 41515
308.3580 39478
308.4413 36883
308.5247 34432
308.6080 32744
308.6914 30816
308.7747 28891
308.8580 26557
308.9414 24666
309.0247 22541
309.1081 20708
309.1914 19214
309.2747 16931
309.3581 15864
309.4414 14339
309.5248 12857
309.6081 11468
309.6914 10214
309.7748 8759
309.8581 7869
309.9415 6733
310.0248 5765
310.1081 4811
310.1915 4105
310.2748 3509
310.3582 2826
310.4415 2288
310.5248 1911
310.6082 1354
310.6915 1042
310.7749 828
310.8582 595
310.9415 435
311.0249 289
311.1082 221
311.1916 175
311.2749 253
311.3582 246
311.4416 385
311.5249 488
311.6083 579
311.6916 814
311.7749 987
311.8583 1208
311.9416 1370
312.0250 1537
312.1083 1824
312.1916 2011
312.2750 2189
312.3583 2735
312.4417 2703
312.5250 2961
312.6083 3259
312.6917 3372
312.7750 3695
312.8584 3564
312.9417 3835
313.0250 3848
313.1084 4032
313.1917 3975
313.2751 4108
313.3584 4194
313.4417 4203
313.5251 4142
313.6084 4128
313.6918 4021
313.7751 4146
313.8584 3945
313.9418 3868
314.0251 3817
314.1085 3608
314.1918 3409
314.2751 3274
314.3585 3104
314.4418 3106
314.5252 2913
314.6085 2657
314.6918 2639
314.7752 2432
314.8585 2249
314.9419 1887
315.0252 1683
315.1085 1609
315.1919 1513
315.2752 1276
315.3586 1136
315.4419 949
315.5252 896
315.6086 699
315.6919 587
315.7753 481
315.8586 423
315.9419 285
316.0253 272
316.1086 199
316.1920 124
316.2753 131
316.3586 76
316.4420 69
316.5253 94
316.6087 53
316.6920 88
316.7753 92
316.8587 95
316.9420 163
317.0254 183
317.1087 238
317.1920 318
317.2754 375
317.3587 406
317.4421 478
317.5254 557
317.6087 639
317.6921 666
317.7754 771
317.8588 862
317.9421 874
318.0254 984
318.1088 1116
318.1921 1085
318.2755 1141
318.3588 1250
318.4421 1238
318.5255 1353
318.6088 1293
318.6922 1381
318.7755 1337
318.8588 1359
318.9422 1338
319.0255 1344
319.1089 1390
319.1922 1398
319.2755 1330
319.3589 1259
319.4422 1216
319.5256 1233
319.6089 1159
319.6922 1094
319.7756 1065
319.8589 1052
319.9423 888
320.0256 957
320.1089 820
320.1923 727
320.2756 718
320.3590 610
320.4423 636
320.5256 557
320.6090 405
320.6923 397
320.7757 381
320.8590 361
320.9423 269
321.0257 212
321.1090 242
321.1924 202
321.2757 123
321.3590 125
321.4424 94
321.5257 59
321.6091 55
321.6924 40
321.7757 32
321.8591 27
321.9424 40
322.0258 43
322.1091 30
322.1924 68
322.2758 79
322.3591 68
322.4425 129
322.5258 136
322.6091 161
322.6925 190
322.7758 247
322.8592 252
322.9425 245
323.0258 325
323.1092 375
323.1925 382
323.2759 418
323.3592 447
323.4425 426
323.5259 486
323.6092 492
323.6926 473
323.7759 578
323.8592 505
323.9426 535
324.0259 583
324.1093 574
324.1926 620
324.2759 677
324.3593 591
324.4426 552
324.5260 562
324.6093 569
324.6926 574
324.7760 586
324.8593 585
324.9427 522
325.0260 488
325.1093 492
325.1927 518
325.2760 423
325.3594 469
325.4427 401
325.5260 367
325.6094 335
325.6927 397
325.7761 277
325.8594 276
325.9427 257
326.0261 170
326.1094 165
326.1928 147
326.2761 112
326.3594 125
326.4428 78
326.5261 104
326.6095 80
326.6928 60
326.7761 49
326.8595 40
326.9428 19
327.0262 51
327.1095 25
327.1928 13
327.2762 22
327.3595 34
327.4429 36
327.5262 26
327.6095 39
327.6929 52
327.7762 57
327.8596 74
327.9429 80
328.0262 112
328.1096 91
328.1929 126
328.2763 140
328.3596 141
328.4429 163
328.5263 167
328.6096 186
328.6930 237
328.7763 226
328.8596 251
328.9430 245
329.0263 274
329.1097 262
329.1930 269
329.2763 294
329.3597 336
329.4430 268
329.5264 316
329.6097 274
329.6930 297
329.7764 267
329.8597 314
329.9431 312
330.0264 312
330.1097 284
330.1931 231
330.2764 283
330.3598 310
330.4431 270
330.5264 212
330.6098 240
330.6931 245
330.7765 206
330.8598 165
330.9431 154
331.0265 133
331.1098 145
331.1932 116
331.2765 146
331.3598 127
331.4432 91
331.5265 69
331.6099 66
331.6932 79
331.7765 75
331.8599 30
331.9432 40
332.0266 32
332.1099 53
332.1932 31
332.2766 26
332.3599 25
332.4433 53
332.5266 38
332.6099 49
332.6933 45
332.7766 35
332.8600 27
332.9433 39
333.0266 31
333.1100 44
333.1933 54
333.2767 63
333.3600 61
333.4433 94
333.5267 72
333.6100 79
333.6934 111
333.7767 132
333.8600 88
333.9434 123
334.0267 108
334.1101 131
334.1934 140
334.2767 155
334.3601 162
334.4434 179
334.5268 165
334.6101 155
334.6934 117
334.7768 151
334.8601 157
334.9435 163
335.0268 155
335.1101 150
335.1935 181
335.2768 123
335.3602 141
335.4435 154
335.5268 122
335.6102 121
335.6935 141
335.7769 103
335.8602 110
335.9435 107
336.0269 103
336.1102 71
336.1936 77
336.2769 72
336.3602 47
336.4436 59
336.5269 39
336.6103 54
336.6936 46
336.7769 62
336.8603 49
336.9436 41
337.0270 39
337.1103 31
337.1936 13
337.2770 22
337.3603 33
337.4437 12
337.5270 33
337.6103 25
337.6937 39
337.7770 30
337.8604 25
337.9437 34
338.0270 70
338.1104 58
338.1937 58
338.2771 72
338.3604 60
338.4437 72
338.5271 79
338.6104 77
338.6938 125
338.7771 115
338.8604 85
338.9438 118
339.0271 93
339.1105 116
339.1938 145
339.2771 139
339.3605 158
339.4438 122
339.5272 135
339.6105 158
339.6938 152
339.7772 140
339.8605 173
339.9439 174
340.0272 188
340.1105 195
340.1939 147
340.2772 138
340.3606 135
340.4439 103
340.5272 130
340.6106 146
340.6939 110
340.7773 98
340.8606 101
340.9439 91
341.0273 100
341.1106 90
341.1940 97
341.2773 84
341.3606 83
341.4440 49
341.5273 32
341.6107 49
341.6940 21
341.7773 57
341.8607 26
341.9440 26
342.0274 24
342.1107 11
342.1940 19
342.2774 4
342.3607 8
342.4441 2
342.5274 7
342.6107 25
342.6941 13
342.7774 27
342.8608 14
342.9441 27
343.0274 30
343.1108 41
343.1941 33
343.2775 46
343.3608 48
343.4441 51
343.5275 97
343.6108 67
343.6942 81
343.7775 47
343.8608 97
343.9442 108
344.0275 109
344.1109 136
344.1942 102
344.2775 115
344.3609 134
344.4442 150
344.5276 143
344.6109 161
344.6942 143
344.7776 126
344.8609 149
344.9443 139
345.0276 137
345.1109 157
345.1943 169
345.2776 135
345.3610 142
345.4443 157
345.5276 129
345.6110 138
345.6943 134
345.7777 129
345.8610 112
345.9443 118
346.0277 127
346.1110 120
346.1944 98
346.2777 112
346.3610 123
346.4444 91
346.5277 101
346.6111 60
346.6944 67
346.7777 89
346.8611 74
346.9444 39
347.0278 32
347.1111 43
347.1944 21
347.2778 16
347.3611 12
347.4445 17
347.5278 13
347.6111 6
347.6945 44
347.7778 16
347.8612 29
347.9445 6
348.0278 13
348.1112 14
348.1945 15
348.2779 19
348.3612 27
348.4445 23
348.5279 22
348.6112 32
348.6946 37
348.7779 65
348.8612 34
348.9446 76
349.0279 58
349.1113 60
349.1946 67
349.2779 80
349.3613 117
349.4446 97
349.5280 88
349.6113 94
349.6946 110
349.7780 125
349.8613 113
349.9447 99
350.0280 113
350.1113 125
350.1947 122
350.2780 116
350.3614 138
350.4447 118
350.5280 119
350.6114 114
350.6947 141
350.7781 128
350.8614 125
350.9447 129
351.0281 86
351.1114 101
351.1948 98
351.2781 84
351.3614 91
351.4448 98
351.5281 68
351.6115 75
351.6948 56
351.7781 51
351.8615 54
351.9448 61
352.0282 52
352.1115 51
352.1948 34
352.2782 30
352.3615 22
352.4449 49
352.5282 32
352.6115 54
352.6949 31
352.7782 26
352.8616 28
352.9449 18
353.0282 23
353.1116 25
353.1949 8
353.2783 11
353.3616 21
353.4449 16
353.5283 14
353.6116 28
353.6950 33
353.7783 19
353.8616 31
353.9450 23
354.0283 32
354.1117 64
354.1950 49
354.2783 59
354.3617 40
354.4450 54
354.5284 63
354.6117 48
354.6950 53
354.7784 74
354.8617 82
354.9451 90
355.0284 87
355.1117 80
355.1951 82
355.2784 108
355.3618 70
355.4451 105
355.5284 88
355.6118 95
355.6951 98
355.7785 102
355.8618 98
355.9451 89
356.0285 93
356.1118 81
356.1952 91
356.2785 79
356.3618 91
356.4452 100
356.5285 57
356.6119 71
356.6952 78
356.7785 70
356.8619 68
356.9452 66
357.0286 38
357.1119 57
357.1952 48
357.2786 53
357.3619 42
357.4453 40
357.5286 28
357.6119 33
357.6953 22
357.7786 11
357.8620 20
357.9453 17
358.0286 22
358.1120 26
358.1953 18
358.2787 8
358.3620 13
358.4453 24
358.5287 16
358.6120 10
358.6954 20
358.7787 9
358.8620 10
358.9454 9
359.0287 18
359.1121 17
359.1954 23
359.2787 32
359.3621 18
359.4454 49
359.5288 30
359.6121 30
359.6954 34
359.7788 53
359.8621 42
359.9455 66
360.0288 76
360.1121 51
360.1955 71
360.2788 57
360.3622 60
360.4455 42
360.5288 68
360.6122 65
360.6955 67
360.7789 74
360.8622 55
360.9455 104
361.0289 73
361.1122 65
361.1956 58
361.2789 64
361.3622 65
361.4456 45
361.5289 68
361.6123 49
361.6956 64
361.7789 55
361.8623 56
361.9456 37
362.0290 55
362.1123 30
362.1956 40
362.2790 27
362.3623 23
362.4457 31
362.5290 26
362.6123 24
362.6957 26
362.7790 12
362.8624 47
362.9457 16
363.0290 30
363.1124 6
363.1957 18
363.2791 11
363.3624 2
363.4457 16
363.5291 22
363.6124 7
363.6958 20
363.7791 5
363.8624 17
363.9458 19
364.0291 11
364.1125 22
364.1958 22
364.2791 29
364.3625 29
364.4458 16
364.5292 33
364.6125 41
364.6958 20
364.7792 60
364.8625 34
364.9459 41
365.0292 35
365.1125 56
365.1959 37
365.2792 56
365.3626 58
365.4459 97
365.5292 57
365.6126 54
365.6959 61
365.7793 48
365.8626 81
365.9459 54
366.0293 52
366.1126 52
366.1960 36
366.2793 42
366.3626 47
366.4460 57
366.5293 40
366.6127 70
366.6960 50
366.7793 55
366.8627 36
366.9460 76
367.0294 39
367.1127 36
367.1960 32
367.2794 49
367.3627 36
367.4461 31
367.5294 30
367.6127 31
367.6961 14
367.7794 13
367.8628 17
367.9461 24
368.0294 17
368.1128 14
368.1961 13
368.2795 5
368.3628 9
368.4461 14
368.5295 4
368.6128 27
368.6962 3
368.7795 12
368.8628 7
368.9462 22
369.0295 8
369.1129 13
369.1962 7
369.2795 26
369.3629 23
369.4462 13
369.5296 15
369.6129 30
369.6962 29
369.7796 23
369.8629 19
369.9463 29
370.0296 18
370.1129 18
370.1963 31
370.2796 39
370.3630 97
370.4463 25
370.5296 36
370.6130 40
370.6963 46
370.7797 43
370.8630 45
370.9463 56
371.0297 60
371.1130 61
371.1964 42
371.2797 59
371.3630 53
371.4464 33
371.5297 50
371.6131 63
371.6964 51
371.7797 39
371.8631 56
371.9464 50
372.0298 40
372.1131 46
372.1964 29
372.2798 32
372.3631 59
372.4465 36
372.5298 39
372.6131 31
372.6965 22
372.7798 31
372.8632 10
372.9465 44
373.0298 27
373.1132 12
373.1965 29
373.2799 16
373.3632 3
373.4465 19
373.5299 6
373.6132 21
373.6966 18
373.7799 6
373.8632 5
373.9466 43
374.0299 8
374.1133 25
374.1966 14
374.2799 12
374.3633 11
374.4466 6
374.5300 12
374.6133 17
374.6966 41
374.7800 18
374.8633 15
374.9467 21
375.0300 7
375.1133 23
375.1967 44
375.2800 23
375.3634 25
375.4467 29
375.5300 34
375.6134 31
375.6967 22
375.7801 32
375.8634 44
375.9467 37
376.0301 32
376.1134 36
376.1968 51
376.2801 56
376.3634 34
376.4468 35
376.5301 46
376.6135 45
376.6968 55
376.7801 27
376.8635 36
376.9468 55
377.0302 54
377.1135 49
377.1968 45
377.2802 29
377.3635 34
377.4469 22
377.5302 29
377.6135 24
377.6969 38
377.7802 34
377.8636 7
377.9469 22
378.0302 27
378.1136 17
378.1969 21
378.2803 13
378.3636 28
378.4469 5
378.5303 23
378.6136 31
378.6970 36
378.7803 36
378.8636 22
378.9470 14
379.0303 8
379.1137 21
379.1970 32
379.2803 7
379.3637 11
379.4470 20
379.5304 23
379.6137 17
379.6970 34
379.7804 11
379.8637 8
379.9471 4
380.0304 39
380.1137 40
380.1971 11
380.2804 20
380.3638 29
380.4471 46
380.5304 30
380.6138 22
380.6971 26
380.7805 45
380.8638 30
380.9471 19
381.0305 56
381.1138 27
381.1972 60
381.2805 54
381.3638 25
381.4472 21
381.5305 49
381.6139 26
381.6972 49
381.7805 32
381.8639 31
381.9472 33
382.0306 42
382.1139 37
382.1972 32
382.2806 45
382.3639 32
382.4473 45
382.5306 24
382.6139 35
382.6973 12
382.7806 42
382.8640 21
382.9473 6
383.0306 13
383.1140 41
383.1973 16
383.2807 14
383.3640 18
383.4473 16
383.5307 12
383.6140 7
383.6974 11
383.7807 12
383.8640 10
383.9474 7
384.0307 13
384.1141 4
384.1974 7
384.2807 9
384.3641 5
384.4474 7
384.5308 18
384.6141 10
384.6974 7
384.7808 28
384.8641 7
384.9475 11
385.0308 19
385.1141 7
385.1975 14
385.2808 9
385.3642 19
385.4475 17
385.5308 33
385.6142 37
385.6975 26
385.7809 22
385.8642 44
385.9475 18
386.0309 41
386.1142 49
386.1976 23
386.2809 25
386.3642 24
386.4476 24
386.5309 48
386.6143 39
386.6976 20
386.7809 46
386.8643 16
386.9476 27
387.0310 50
387.1143 22
387.1976 48
387.2810 23
387.3643 44
387.4477 15
387.5310 21
387.6143 38
387.6977 35
387.7810 33
387.8644 26
387.9477 14
388.0310 21
388.1144 8
388.1977 12
388.2811 24
388.3644 5
388.4477 12
388.5311 4
388.6144 5
388.6978 13
388.7811 4
388.8644 19
388.9478 20
389.0311 8
389.1145 6
389.1978 1
389.2811 17
389.3645 19
389.4478 3
389.5312 19
389.6145 8
389.6978 1
389.7812 26
389.8645 16
389.9479 15
390.0312 19
390.1145 13
390.1979 15
390.2812 31
390.3646 39
390.4479 28
390.5312 18
390.6146 43
390.6979 26
390.7813 17
390.8646 19
390.9479 40
391.0313 58
391.1146 29
391.1980 11
391.2813 25
391.3646 28
391.4480 39
391.5313 29
391.6147 18
391.6980 66
391.7813 13
391.8647 21
391.9480 18
392.0314 20
392.1147 41
392.1980 13
392.2814 21
392.3647 28
392.4481 36
392.5314 15
392.6147 12
392.6981 19
392.7814 41
392.8648 12
392.9481 6
393.0314 21
393.1148 22
393.1981 38
393.2815 11
393.3648 12
393.4481 43
393.5315 9
393.6148 27
393.6982 23
393.7815 6
393.8648 9
393.9482 5
394.0315 21
394.1149 4
394.1982 14
394.2815 4
394.3649 22
394.4482 11
394.5316 18
394.6149 11
394.6982 23
394.7816 13
394.8649 17
394.9483 54
395.0316 11
395.1149 26
395.1983 18
395.2816 25
395.3650 16
395.4483 28
395.5316 13
395.6150 26
395.6983 26
395.7817 31
395.8650 13
395.9483 20
396.0317 33
396.1150 21
396.1984 29
396.2817 27
396.3650 14
396.4484 23
396.5317 22
396.6151 32
396.6984 31
396.7817 25
396.8651 25
396.9484 36
397.0318 26
397.1151 13
397.1984 25
397.2818 25
397.3651 41
397.4485 19
397.5318 30
397.6151 15
397.6985 13
397.7818 26
397.8652 14
397.9485 37
398.0318 35
398.1152 6
398.1985 16
398.2819 22
398.3652 37
398.4485 11
398.5319 2
398.6152 14
398.6986 0
398.7819 11
398.8652 8
398.9486 21
399.0319 28
399.1153 4
399.1986 21
399.2819 18
399.3653 4
399.4486 24
399.5320 1
399.6153 7
399.6986 3
399.7820 8
399.8653 29
399.9487 2
400.0320 22
400.1153 19
400.1987 21
400.2820 25
400.3654 9
400.4487 14
400.5320 14
400.6154 23
400.6987 23
400.7821 17
400.8654 24
400.9487 22
401.0321 25
401.1154 30
401.1988 37
401.2821 34
401.3654 40
401.4488 12
401.5321 19
401.6155 32
401.6988 12
401.7821 28
401.8655 25
401.9488 13
402.0322 15
402.1155 14
402.1988 41
402.2822 66
402.3655 24
402.4489 20
402.5322 37
402.6155 16
402.6989 19
402.7822 30
402.8656 13
402.9489 9
403.0322 27
403.1156 16
403.1989 17
403.2823 28
403.3656 28
403.4489 19
403.5323 19
403.6156 12
403.6990 19
403.7823 7
403.8656 14
403.9490 6
404.0323 37
404.1157 3
404.1990 14
404.2823 12
404.3657 11
404.4490 18
404.5324 5
404.6157 11
404.6990 14
404.7824 12
404.8657 19
404.9491 14
405.0324 12
405.1157 7
405.1991 15
405.2824 16
405.3658 19
405.4491 5
405.5324 20
405.6158 16
405.6991 19
405.7825 12
405.8658 32
405.9491 8
406.0325 23
406.1158 30
406.1992 10
406.2825 13
406.3658 24
406.4492 15
406.5325 51
406.6159 29
406.6992 13
406.7825 16
406.8659 36
406.9492 18
407.0326 22
407.1159 18
407.1992 17
407.2826 33
407.3659 27
407.4493 29
407.5326 15
407.6159 11
407.6993 33
407.7826 21
407.8660 13
407.9493 14
408.0326 11
408.1160 58
408.1993 8
408.2827 18
408.3660 23
408.4493 3
408.5327 30
408.6160 30
408.6994 19
408.7827 44
408.8660 20
408.9494 1
409.0327 3
409.1161 6
409.1994 10
409.2827 2
409.3661 23
409.4494 3
409.5328 15
409.6161 18
409.6994 21
409.7828 21
409.8661 14
409.9495 7
410.0328 4
410.1161 6
410.1995 9
410.2828 22
410.3662 8
410.4495 21
410.5328 19
410.6162 22
410.6995 16
410.7829 20
410.8662 11
410.9495 11
411.0329 23
411.1162 28
411.1996 35
411.2829 28
411.3662 13
411.4496 12
411.5329 32
411.6163 22
411.6996 29
411.7829 14
411.8663 21
411.9496 26
412.0330 18
412.1163 14
412.1996 19
412.2830 26
412.3663 16
412.4497 28
412.5330 23
412.6163 9
412.6997 39
412.7830 20
412.8664 48
412.9497 8
413.0330 19
413.1164 14
413.1997 7
413.2831 9
413.3664 13
413.4497 22
413.5331 12
413.6164 11
413.6998 17
413.7831 34
413.8664 33
413.9498 19
414.0331 8
414.1165 7
414.1998 11
414.2831 17
414.3665 17
414.4498 20
414.5332 8
414.6165 13
414.6998 3
414.7832 2
414.8665 16
414.9499 9
415.0332 6
415.1165 16
415.1999 26
415.2832 12
415.3666 13
415.4499 25
415.5332 12
415.6166 15
415.6999 18
415.7833 9
415.8666 18
415.9499 15
416.0333 12
416.1166 12
416.2000 20
416.2833 27
416.3666 44
416.4500 17
416.5333 10
416.6167 17
416.7000 18
416.7833 13
416.8667 21
416.9500 14
417.0334 12
417.1167 22
417.2000 24
417.2834 11
417.3667 24
417.4501 22
417.5334 32
417.6167 19
417.7001 20
417.7834 22
417.8668 36
417.9501 14
418.0334 13
418.1168 9
418.2001 19
418.2835 16
418.3668 12
418.4501 2
418.5335 38
418.6168 10
418.7002 7
418.7835 10
418.8668 5
418.9502 6
419.0335 9
419.1169 2
419.2002 1
419.2835 14
419.3669 3
419.4502 4
419.5336 7
419.6169 6
419.7002 15
419.7836 26
419.8669 4
419.9503 28
420.0336 17
420.1169 10
420.2003 14
420.2836 21
420.3670 8
420.4503 16
420.5336 21
420.6170 13
420.7003 16
420.7837 15
420.8670 8
420.9503 18
421.0337 39
421.1170 11
421.2004 4
421.2837 28
421.3670 23
421.4504 54
421.5337 23
421.6171 20
421.7004 28
421.7837 8
421.8671 22
421.9504 16
422.0338 17
422.1171 34
422.2004 27
422.2838 36
422.3671 17
422.4505 24
422.5338 11
422.6171 22
422.7005 17
422.7838 9
422.8672 11
422.9505 10
423.0338 3
423.1172 20
423.2005 4
423.2839 13
423.3672 14
423.4505 12
423.5339 13
423.6172 9
423.7006 7
423.7839 6
423.8672 17
423.9506 11
424.0339 19
424.1173 4
424.2006 3
424.2839 17
424.3673 2
424.4506 33
424.5340 11
424.6173 12
424.7006 13
424.7840 17
424.8673 22
424.9507 16
425.0340 2
425.1173 15
425.2007 6
425.2840 12
425.3674 15
425.4507 9
425.5340 7
425.6174 8
425.7007 8
425.7841 20
425.8674 18
425.9507 13
426.0341 4
426.1174 44
426.2008 14
426.2841 12
426.3674 22
426.4508 13
426.5341 13
426.6175 10
426.7008 27
426.7841 11
426.8675 14
426.9508 11
427.0342 18
427.1175 18
427.2008 7
427.2842 19
427.3675 17
427.4509 8
427.5342 11
427.6175 12
427.7009 25
427.7842 17
427.8676 13
427.9509 14
428.0342 12
428.1176 23
428.2009 39
428.2843 6
428.3676 11
428.4509 10
428.5343 23
428.6176 20
428.7010 4
428.7843 14
428.8676 4
428.9510 11
429.0343 1
429.1177 13
429.2010 11
429.2843 10
429.3677 13
429.4510 3
429.5344 10
429.6177 5
429.7010 10
429.7844 9
429.8677 13
429.9511 22
430.0344 12
430.1177 21
430.2011 6
430.2844 16
430.3678 29
430.4511 12
430.5344 14
430.6178 5
430.7011 30
430.7845 17
430.8678 15
430.9511 9
431.0345 19
431.1178 4
431.2012 23
431.2845 21
431.3678 10
431.4512 11
431.5345 27
431.6179 15
431.7012 16
431.7845 16
431.8679 24
431.9512 20
432.0346 13
432.1179 12
432.2012 19
432.2846 10
432.3679 12
432.4513 12
432.5346 15
432.6179 15
432.7013 11
432.7846 18
432.8680 4
432.9513 11
433.0346 9
433.1180 5
433.2013 41
433.2847 25
433.3680 13
433.4513 16
433.5347 18
433.6180 18
433.7014 19
433.7847 0
433.8680 5
433.9514 4
434.0347 9
434.1181 11
434.2014 9
434.2847 7
434.3681 21
434.4514 28
434.5348 20
434.6181 19
434.7014 7
434.7848 10
434.8681 4
434.9515 20
435.0348 18
435.1181 14
435.2015 6
435.2848 7
435.3682 14
435.4515 23
435.5348 15
435.6182 16
435.7015 19
435.7849 16
435.8682 22
435.9515 30
436.0349 18
436.1182 5
436.2016 15
436.2849 12
436.3682 19
436.4516 8
436.5349 25
436.6183 30
436.7016 2
436.7849 25
436.8683 19
436.9516 37
437.0350 12
437.1183 18
437.2016 19
437.2850 23
437.3683 43
437.4517 25
437.5350 28
437.6183 13
437.7017 20
437.7850 25
437.8684 21
437.9517 4
438.0350 25
438.1184 26
438.2017 6
438.2851 13
438.3684 3
438.4517 21
438.5351 47
438.6184 17
438.7018 49
438.7851 1
438.8684 8
438.9518 21
439.0351 7
439.1185 5
439.2018 23
439.2851 10
439.3685 12
439.4518 2
439.5352 14
439.6185 11
439.7018 19
439.7852 28
439.8685 5
439.9519 4
440.0352 9
440.1185 19
440.2019 9
440.2852 14
440.3686 8
440.4519 9
440.5352 7
440.6186 19
440.7019 11
440.7853 24
440.8686 12
440.9519 16
441.0353 22
441.1186 21
441.2020 15
441.2853 13
441.3686 13
441.4520 11
441.5353 6
441.6187 27
441.7020 9
441.7853 7
441.8687 20
441.9520 19
442.0354 24
442.1187 14
442.2020 29
442.2854 15
442.3687 17
442.4521 22
442.5354 9
442.6187 16
442.7021 3
442.7854 14
442.8688 19
442.9521 21
443.0354 23
443.1188 6
443.2021 26
443.2855 20
443.3688 10
443.4521 21
443.5355 16
443.6188 17
443.7022 2
443.7855 13
443.8688 12
443.9522 4
444.0355 7
444.1189 4
444.2022 9
444.2855 1
444.3689 2
444.4522 32
444.5356 7
444.6189 29
444.7022 13
444.7856 14
444.8689 21
444.9523 10
445.0356 23
445.1189 14
445.2023 3
445.2856 8
445.3690 17
445.4523 15
445.5356 5
445.6190 27
445.7023 9
445.7857 12
445.8690 19
445.9523 4
446.0357 26
446.1190 14
446.2024 22
446.2857 28
446.3690 21
446.4524 38
446.5357 12
446.6191 9
446.7024 22
446.7857 9
446.8691 22
446.9524 10
447.0358 14
447.1191 8
447.2024 16
447.2858 21
447.3691 20
447.4525 27
447.5358 12
447.6191 12
447.7025 29
447.7858 4
447.8692 17
447.9525 22
448.0358 15
448.1192 11
448.2025 13
448.2859 9
448.3692 16
448.4525 19
448.5359 33
448.6192 2
448.7026 6
448.7859 6
448.8692 17
448.9526 10
449.0359 23
449.1193 10
449.2026 7
449.2859 8
449.3693 9
449.4526 2
449.5360 24
449.6193 4
449.7026 2
449.7860 4
449.8693 7
449.9527 6
450.0360 25
450.1193 9
450.2027 32
450.2860 14
450.3694 23
450.4527 1
450.5360 7
450.6194 18
450.7027 20
450.7861 28
450.8694 10
450.9527 2
451.0361 10
451.1194 10
451.2028 10
451.2861 9
451.3694 23
451.4528 10
451.5361 24
451.6195 30
451.7028 12
451.7861 27
451.8695 16
451.9528 16
452.0362 24
452.1195 10
452.2028 13
452.2862 55
452.3695 11
452.4529 8
452.5362 20
452.6195 17
452.7029 42
452.7862 15
452.8696 8
452.9529 14
453.0362 16
453.1196 8
453.2029 8
453.2863 30
453.3696 17
453.4529 31
453.5363 17
453.6196 11
453.7030 13
453.7863 5
453.8696 0
453.9530 15
454.0363 2
454.1197 2
454.2030 5
454.2863 5
454.3697 0
454.4530 20
454.5364 14
454.6197 1
454.7030 23
454.7864 14
454.8697 4
454.9531 29
455.0364 20
455.1197 18
455.2031 14
455.2864 11
455.3698 11
455.4531 7
455.5364 13
455.6198 19
455.7031 26
455.7865 29
455.8698 31
455.9531 6
456.0365 14
456.1198 13
456.2032 12
456.2865 10
456.3698 10
456.4532 6
456.5365 8
456.6199 15
456.7032 20
456.7865 12
456.8699 28
456.9532 16
457.0366 20
457.1199 29
457.2032 10
457.2866 40
457.3699 25
457.4533 17
457.5366 8
457.6199 19
457.7033 6
457.7866 13
457.8700 24
457.9533 15
458.0366 27
458.1200 10
458.2033 9
458.2867 4
458.3700 5
458.4533 21
458.5367 14
458.6200 2
458.7034 13
458.7867 14
458.8700 17
458.9534 30
459.0367 6
459.1201 16
459.2034 2
459.2867 5
459.3701 26
459.4534 11
459.5368 9
459.6201 13
459.7034 9
459.7868 7
459.8701 19
459.9535 2
460.0368 2
460.1201 22
460.2035 14
460.2868 22
460.3702 2
460.4535 21
460.5368 19
460.6202 11
460.7035 21
460.7869 9
460.8702 13
460.9535 10
461.0369 21
461.1202 15
461.2036 17
461.2869 34
461.3702 3
461.4536 11
461.5369 7
461.6203 14
461.7036 18
461.7869 13
461.8703 10
461.9536 17
462.0370 17
462.1203 27
462.2036 16
462.2870 5
462.3703 14
462.4537 21
462.5370 20
462.6203 4
462.7037 36
462.7870 12
462.8704 52
462.9537 34
463.0370 19
463.1204 14
463.2037 24
463.2871 9
463.3704 11
463.4537 18
463.5371 9
463.6204 10
463.7038 6
463.7871 5
463.8704 21
463.9538 14
464.0371 17
464.1205 15
464.2038 15
464.2871 18
464.3705 28
464.4538 20
464.5372 5
464.6205 7
464.7038 12
464.7872 9
464.8705 8
464.9539 25
465.0372 12
465.1205 2
465.2039 22
465.2872 20
465.3706 24
465.4539 20
465.5372 6
465.6206 7
465.7039 21
465.7873 21
465.8706 14
465.9539 7
466.0373 17
466.1206 10
466.2040 23
466.2873 27
466.3706 6
466.4540 14
466.5373 12
466.6207 52
466.7040 2
466.7873 5
466.8707 13
466.9540 12
467.0374 17
467.1207 16
467.2040 13
467.2874 7
467.3707 3
467.4541 6
467.5374 14
467.6207 11
467.7041 24
467.7874 10
467.8708 5
467.9541 19
468.0374 14
468.1208 19
468.2041 11
468.2875 3
468.3708 17
468.4541 18
468.5375 5
468.6208 5
468.7042 17
468.7875 15
468.8708 16
468.9542 26
469.0375 2
469.1209 3
469.2042 13
469.2875 1
469.3709 10
469.4542 14
469.5376 20
469.6209 5
469.7042 19
469.7876 6
469.8709 0
469.9543 6
470.0376 8
470.1209 6
470.2043 12
470.2876 14
470.3710 15
470.4543 13
470.5376 5
470.6210 4
470.7043 11
470.7877 11
470.8710 11
470.9543 18
471.0377 2
471.1210 16
471.2044 10
471.2877 9
471.3710 23
471.4544 6
471.5377 11
471.6211 25
471.7044 11
471.7877 7
471.8711 10
471.9544 10
472.0378 5
472.1211 4
472.2044 17
472.2878 3
472.3711 23
472.4545 11
472.5378 51
472.6211 32
472.7045 8
472.7878 36
472.8712 5
472.9545 18
473.0378 5
473.1212 8
473.2045 3
473.2879 9
473.3712 19
473.4545 18
473.5379 12
473.6212 35
473.7046 35
473.7879 11
473.8712 14
473.9546 11
474.0379 35
474.1213 11
474.2046 0
474.2879 8
474.3713 9
474.4546 14
474.5380 4
474.6213 6
474.7046 8
474.7880 15
474.8713 13
474.9547 1
475.0380 18
475.1213 20
475.2047 0
475.2880 16
475.3714 3
475.4547 11
475.5380 8
475.6214 33
475.7047 15
475.7881 13
475.8714 7
475.9547 30
476.0381 27
476.1214 22
476.2048 12
476.2881 18
476.3714 5
476.4548 14
476.5381 11
476.6215 19
476.7048 18
476.7881 26
476.8715 5
476.9548 21
477.0382 30
477.1215 6
477.2048 18
477.2882 12
477.3715 12
477.4549 10
477.5382 34
477.6215 22
477.7049 14
477.7882 11
477.8716 30
477.9549 25
478.0382 17
478.1216 5
478.2049 16
478.2883 39
478.3716 12
478.4549 33
478.5383 16
478.6216 8
478.7050 31
478.7883 21
478.8716 1
478.9550 3
479.0383 22
479.1217 24
479.2050 8
479.2883 14
479.3717 0
479.4550 9
479.5384 13
479.6217 19
479.7050 10
479.7884 7
479.8717 15
479.9551 9
480.0384 19
480.1217 9
480.2051 13
480.2884 10
480.3718 3
480.4551 14
480.5384 27
480.6218 7
480.7051 30
480.7885 34
480.8718 11
480.9551 12
481.0385 41
481.1218 25
481.2052 18
481.2885 2
481.3718 6
481.4552 30
481.5385 27
481.6219 16
481.7052 5
481.7885 4
481.8719 34
481.9552 4
482.0386 10
482.1219 4
482.2052 21
482.2886 16
482.3719 14
482.4553 7
482.5386 19
482.6219 25
482.7053 18
482.7886 12
482.8720 12
482.9553 4
483.0386 11
483.1220 4
483.2053 4
483.2887 2
483.3720 10
483.4553 8
483.5387 9
483.6220 4
483.7054 25
483.7887 13
483.8720 8
483.9554 4
484.0387 9
484.1221 7
484.2054 5
484.2887 6
484.3721 13
484.4554 9
484.5388 26
484.6221 17
484.7054 1
484.7888 6
484.8721 6
484.9555 11
485.0388 12
485.1221 18
485.2055 14
485.2888 7
485.3722 14
485.4555 11
485.5388 16
485.6222 14
485.7055 16
485.7889 36
485.8722 28
485.9555 5
486.0389 10
486.1222 11
486.2056 10
486.2889 30
486.3722 15
486.4556 5
486.5389 18
486.6223 31
486.7056 17
486.7889 8
486.8723 15
486.9556 24
487.0390 16
487.1223 6
487.2056 7
487.2890 14
487.3723 5
487.4557 7
487.5390 10
487.6223 17
487.7057 5
487.7890 24
487.8724 6
487.9557 24
488.0390 16
488.1224 5
488.2057 11
488.2891 16
488.3724 9
488.4557 26
488.5391 19
488.6224 3
488.7058 14
488.7891 24
488.8724 5
488.9558 13
489.0391 7
489.1225 21
489.2058 11
489.2891 1
489.3725 16
489.4558 12
489.5392 11
489.6225 3
489.7058 14
489.7892 5
489.8725 2
489.9559 21
490.0392 15
490.1225 7
490.2059 2
490.2892 19
490.3726 22
490.4559 4
490.5392 3
490.6226 1
490.7059 1
490.7893 5
490.8726 25
490.9559 24
491.0393 2
491.1226 3
491.2060 11
491.2893 22
491.3726 17
491.4560 7
491.5393 5
491.6227 15
491.7060 22
491.7893 9
491.8727 13
491.9560 8
492.0394 13
492.1227 8
492.2060 5
492.2894 3
492.3727 37
492.4561 3
492.5394 16
492.6227 12
492.7061 8
492.7894 15
492.8728 22
492.9561 6
493.0394 15
493.1228 17
493.2061 3
493.2895 10
493.3728 8
493.4561 7
493.5395 11
493.6228 20
493.7062 4
493.7895 7
493.8728 21
493.9562 6
494.0395 21
494.1229 4
494.2062 5
494.2895 5
494.3729 19
494.4562 15
494.5396 3
494.6229 17
494.7062 15
494.7896 6
494.8729 11
494.9563 21
495.0396 25
495.1229 25
495.2063 0
495.2896 7
495.3730 15
495.4563 7
495.5396 11
495.6230 32
495.7063 28
495.7897 7
495.8730 8
495.9563 8
496.0397 12
496.1230 12
496.2064 31
496.2897 5
496.3730 8
496.4564 13
496.5397 5
496.6231 5
496.7064 17
496.7897 12
496.8731 20
496.9564 1
497.0398 8
497.1231 7
497.2064 32
497.2898 22
497.3731 8
497.4565 9
497.5398 22
497.6231 21
497.7065 8
497.7898 9
497.8732 3
497.9565 5
498.0398 19
498.1232 2
498.2065 11
498.2899 3
498.3732 5
498.4565 5
498.5399 11
498.6232 12
498.7066 6
498.7899 37
498.8732 16
498.9566 14
499.0399 6
499.1233 13
499.2066 2
499.2899 49
499.3733 15
499.4566 27
499.5400 18
499.6233 14
499.7066 14
499.7900 15
499.8733 20
499.9567 3
500.0400 7
500.1233 9
500.2067 6
500.2900 9
500.3734 30
500.4567 14
500.5400 8
500.6234 11
500.7067 36
500.7901 4
500.8734 9
500.9567 52
501.0401 8
501.1234 19
501.2068 6
501.2901 8
501.3734 27
501.4568 2
501.5401 4
501.6235 6
501.7068 5
501.7901 11
501.8735 13
501.9568 21
502.0402 0
502.1235 12
502.2068 7
502.2902 10
502.3735 8
502.4569 22
502.5402 19
502.6235 11
502.7069 20
502.7902 12
502.8736 4
502.9569 21
503.0402 18
503.1236 0
503.2069 37
503.2903 12
503.3736 16
503.4569 10
503.5403 5
503.6236 2
503.7070 15
503.7903 18
503.8736 5
503.9570 15
504.0403 1
504.1237 7
504.2070 23
504.2903 12
504.3737 28
504.4570 15
504.5404 1
504.6237 20
504.7070 18
504.7904 16
504.8737 18
504.9571 11
505.0404 3
505.1237 6
505.2071 6
505.2904 6
505.3738 7
505.4571 6
505.5404 20
505.6238 12
505.7071 19
505.7905 4
505.8738 7
505.9571 12
506.0405 11
506.1238 16
506.2072 16
506.2905 27
506.3738 7
506.4572 10
506.5405 14
506.6239 6
506.7072 26
506.7905 15
506.8739 22
506.9572 7
507.0406 18
507.1239 5
507.2072 13
507.2906 10
507.3739 8
507.4573 14
507.5406 8
507.6239 32
507.7073 9
507.7906 28
507.8740 13
507.9573 21
508.0406 3
508.1240 7
508.2073 14
508.2907 4
508.3740 5
508.4573 12
508.5407 11
508.6240 21
508.7074 8
508.7907 3
508.8740 6
508.9574 2
509.0407 10
509.1241 18
509.2074 7
509.2907 6
509.3741 5
509.4574 11
509.5408 7
509.6241 0
509.7074 29
509.7908 21
509.8741 34
509.9575 20
510.0408 6
510.1241 0
510.2075 16
510.2908 4
510.3742 23
510.4575 17
510.5408 6
510.6242 10
510.7075 17
510.7909 15
510.8742 17
510.9575 7
511.0409 40
511.1242 12
511.2076 21
511.2909 11
511.3742 0
511.4576 8
511.5409 2
511.6243 13
511.7076 17
511.7909 15
511.8743 46
511.9576 14
512.0410 5
512.1243 4
512.2076 16
512.2910 18
512.3743 10
512.4577 8
512.5410 20
512.6243 13
512.7077 16
512.7910 16
512.8744 16
512.9577 14
513.0410 15
513.1244 23
513.2077 32
513.2911 25
513.3744 17
513.4577 5
513.5411 13
513.6244 24
513.7078 7
513.7911 5
513.8744 21
513.9578 14
514.0411 6
514.1245 49
514.2078 5
514.2911 5
514.3745 19
514.4578 6
514.5412 11
514.6245 4
514.7078 7
514.7912 17
514.8745 12
514.9579 9
515.0412 2
515.1245 4
515.2079 4
515.2912 12
515.3746 32
515.4579 8
515.5412 4
515.6246 5
515.7079 9
515.7913 12
515.8746 2
515.9579 1
516.0413 14
516.1246 31
516.2080 4
516.2913 7
516.3746 22
516.4580 44
516.5413 13
516.6247 4
516.7080 7
516.7913 17
516.8747 6
516.9580 8
517.0414 8
517.1247 12
517.2080 1
517.2914 22
517.3747 14
517.4581 18
517.5414 9
517.6247 17
517.7081 6
517.7914 7
517.8748 1
517.9581 14
518.0414 19
518.1248 24
518.2081 16
518.2915 3
518.3748 5
518.4581 6
518.5415 15
518.6248 10
518.7082 7
518.7915 4
518.8748 11
518.9582 9
519.0415 17
519.1249 18
519.2082 17
519.2915 5
519.3749 6
519.4582 16
519.5416 33
519.6249 9
519.7082 8
519.7916 7
519.8749 9
519.9583 1
520.0416 9
520.1249 11
520.2083 11
520.2916 9
520.3750 6
520.4583 8
520.5416 2
520.6250 21
520.7083 10
520.7917 8
520.8750 10
520.9583 5
521.0417 11
521.1250 6
521.2084 11
521.2917 25
521.3750 18
521.4584 28
521.5417 11
521.6251 4
521.7084 14
521.7917 7
521.8751 19
521.9584 17
522.0418 12
522.1251 18
522.2084 37
522.2918 7
522.3751 14
522.4585 25
522.5418 3
522.6251 8
522.7085 6
522.7918 15
522.8752 11
522.9585 6
523.0418 2
523.1252 4
523.2085 25
523.2919 15
523.3752 14
523.4585 11
523.5419 5
523.6252 12
523.7086 7
523.7919 10
523.8752 3
523.9586 10
524.0419 7
524.1253 7
524.2086 13
524.2919 3
524.3753 5
524.4586 10
524.5420 23
524.6253 8
524.7086 12
524.7920 19
524.8753 9
524.9587 16
525.0420 7
525.1253 27
525.2087 6
525.2920 3
525.3754 20
525.4587 12
525.5420 25
525.6254 3
525.7087 10
525.7921 3
525.8754 6
525.9587 9
526.0421 6
526.1254 19
526.2088 18
526.2921 6
526.3754 19
526.4588 1
526.5421 14
526.6255 5
526.7088 15
526.7921 13
526.8755 12
526.9588 17
527.0422 8
527.1255 5
527.2088 5
527.2922 3
527.3755 10
527.4589 3
527.5422 7
527.6255 0
527.7089 10
527.7922 3
527.8756 1
527.9589 30
528.0422 23
528.1256 4
528.2089 18
528.2923 18
528.3756 6
528.4589 12
528.5423 3
528.6256 0
528.7090 4
528.7923 10
528.8756 11
528.9590 8
529.0423 8
529.1257 6
529.2090 39
529.2923 18
529.3757 11
529.4590 8
529.5424 4
529.6257 9
529.7090 24
529.7924 15
529.8757 9
529.9591 2
530.0424 15
530.1257 3
530.2091 12
530.2924 11
530.3758 6
530.4591 0
530.5424 5
530.6258 28
530.7091 14
530.7925 5
530.8758 28
530.9591 11
531.0425 14
531.1258 20
531.2092 2
531.2925 15
531.3758 8
531.4592 4
531.5425 13
531.6259 3
531.7092 9
531.7925 3
531.8759 4
531.9592 6
532.0426 26
532.1259 2
532.2092 1
532.2926 3
532.3759 18
532.4593 2
532.5426 17
532.6259 21
532.7093 26
532.7926 14
532.8760 26
532.9593 7
533.0426 22
533.1260 2
533.2093 18
533.2927 25
533.3760 4
533.4593 19
533.5427 3
533.6260 5
533.7094 7
533.7927 5
533.8760 23
533.9594 11
534.0427 8
534.1261 18
534.2094 6
534.2927 11
534.3761 16
534.4594 9
534.5428 1
534.6261 13
534.7094 14
534.7928 20
534.8761 6
534.9595 30
535.0428 22
535.1261 8
535.2095 2
535.2928 4
535.3762 21
535.4595 14
535.5428 3
535.6262 14
535.7095 6
535.7929 3
535.8762 13
535.9595 9
536.0429 4
536.1262 15
536.2096 23
536.2929 3
536.3762 2
536.4596 5
536.5429 9
536.6263 6
536.7096 9
536.7929 8
536.8763 16
536.9596 27
537.0430 8
537.1263 11
537.2096 8
537.2930 13
537.3763 16
537.4597 10
537.5430 11
537.6263 6
537.7097 13
537.7930 20
537.8764 3
537.9597 12
538.0430 11
538.1264 14
538.2097 11
538.2931 2
538.3764 28
538.4597 23
538.5431 11
538.6264 1
538.7098 12
538.7931 6
538.8764 10
538.9598 3
539.0431 3
539.1265 3
539.2098 6
539.2931 7
539.3765 8
539.4598 9
539.5432 14
539.6265 16
539.7098 5
539.7932 7
539.8765 13
539.9599 25
540.0432 3
540.1265 5
540.2099 35
540.2932 9
540.3766 1
540.4599 2
540.5432 9
540.6266 19
540.7099 10
540.7933 26
540.8766 6
540.9599 7
541.0433 14
541.1266 15
541.2100 12
541.2933 14
541.3766 6
541.4600 32
541.5433 2
541.6267 20
541.7100 9
541.7933 10
541.8767 3
541.9600 16
542.0434 18
542.1267 2
542.2100 14
542.2934 7
542.3767 16
542.4601 5
542.5434 15
542.6267 14
542.7101 21
542.7934 58
542.8768 0
542.9601 11
543.0434 25
543.1268 2
543.2101 3
543.2935 3
543.3768 14
543.4601 10
543.5435 9
543.6268 28
543.7102 14
543.7935 0
543.8768 10
543.9602 2
544.0435 10
544.1269 6
544.2102 8
544.2935 26
544.3769 12
544.4602 12
544.5436 8
544.6269 17
544.7102 3
544.7936 12
544.8769 0
544.9603 12
545.0436 16
545.1269 39
545.2103 9
545.2936 2
545.3770 1
545.4603 20
545.5436 18
545.6270 14
545.7103 0
545.7937 3
545.8770 12
545.9603 2
546.0437 4
546.1270 14
546.2104 8
546.2937 17
546.3770 24
546.4604 5
546.5437 9
546.6271 6
546.7104 10
546.7937 13
546.8771 7
546.9604 11
547.0438 7
547.1271 8
547.2104 9
547.2938 17
547.3771 1
547.4605 4
547.5438 9
547.6271 8
547.7105 27
547.7938 15
547.8772 4
547.9605 1
548.0438 38
548.1272 21
548.2105 10
548.2939 9
548.3772 21
548.4605 9
548.5439 14
548.6272 19
548.7106 10
548.7939 3
548.8772 29
548.9606 5
549.0439 0
549.1273 5
549.2106 6
549.2939 0
549.3773 23
549.4606 2
549.5440 12
549.6273 16
549.7106 14
549.7940 11
549.8773 16
549.9607 5
550.0440 17
550.1273 7
550.2107 12
550.2940 16
550.3774 12
550.4607 10
550.5440 25
550.6274 15
550.7107 23
550.7941 7
550.8774 7
550.9607 24
551.0441 12
551.1274 9
551.2108 8
551.2941 12
551.3774 17
551.4608 22
551.5441 16
551.6275 12
551.7108 11
551.7941 8
551.8775 3
551.9608 10
552.0442 7
552.1275 23
552.2108 21
552.2942 1
552.3775 10
552.4609 10
552.5442 9
552.6275 0
552.7109 33
552.7942 31
552.8776 17
552.9609 28
553.0442 10
553.1276 5
553.2109 23
553.2943 2
553.3776 25
553.4609 42
553.5443 6
553.6276 20
553.7110 5
553.7943 8
553.8776 7
553.9610 20
554.0443 7
554.1277 18
554.2110 10
554.2943 5
554.3777 15
554.4610 9
554.5444 8
554.6277 7
554.7110 1
554.7944 26
554.8777 11
554.9611 0
555.0444 21
555.1277 5
555.2111 9
555.2944 13
555.3778 10
555.4611 4
555.5444 14
555.6278 11
555.7111 11
555.7945 9
555.8778 6
555.9611 10
556.0445 7
556.1278 5
556.2112 33
556.2945 1
556.3778 28
556.4612 11
556.5445 8
556.6279 0
556.7112 30
556.7945 10
556.8779 13
556.9612 27
557.0446 12
557.1279 15
557.2112 4
557.2946 3
557.3779 14
557.4613 11
557.5446 4
557.6279 6
557.7113 17
557.7946 13
557.8780 9
557.9613 13
558.0446 13
558.1280 26
558.2113 34
558.2947 17
558.3780 4
558.4613 1
558.5447 10
558.6280 4
558.7114 38
558.7947 6
558.8780 11
558.9614 1
559.0447 20
559.1281 27
559.2114 2
559.2947 18
559.3781 32
559.4614 7
559.5448 11
559.6281 22
559.7114 5
559.7948 13
559.8781 17
559.9615 4
560.0448 4
560.1281 7
560.2115 10
560.2948 12
560.3782 11
560.4615 7
560.5448 14
560.6282 13
560.7115 8
560.7949 6
560.8782 17
560.9615 8
561.0449 7
561.1282 10
561.2116 8
561.2949 8
561.3782 7
561.4616 7
561.5449 7
561.6283 10
561.7116 3
561.7949 7
561.8783 11
561.9616 17
562.0450 4
562.1283 6
562.2116 0
562.2950 18
562.3783 14
562.4617 10
562.5450 3
562.6283 29
562.7117 3
562.7950 17
562.8784 10
562.9617 0
563.0450 20
563.1284 17
563.2117 6
563.2951 5
563.3784 19
563.4617 12
563.5451 24
563.6284 17
563.7118 7
563.7951 2
563.8784 6
563.9618 9
564.0451 18
564.1285 35
564.2118 1
564.2951 14
564.3785 16
564.4618 15
564.5452 11
564.6285 9
564.7118 12
564.7952 20
564.8785 10
564.9619 4
565.0452 15
565.1285 12
565.2119 6
565.2952 22
565.3786 5
565.4619 24
565.5452 10
565.6286 16
565.7119 13
565.7953 14
565.8786 22
565.9619 15
566.0453 11
566.1286 18
566.2120 13
566.2953 2
566.3786 2
566.4620 11
566.5453 17
566.6287 30
566.7120 25
566.7953 9
566.8787 16
566.9620 20
567.0454 5
567.1287 22
567.2120 8
567.2954 7
567.3787 9
567.4621 13
567.5454 7
567.6287 11
567.7121 9
567.7954 7
567.8788 4
567.9621 38
568.0454 8
568.1288 5
568.2121 18
568.2955 9
568.3788 16
568.4621 27
568.5455 4
568.6288 15
568.7122 10
568.7955 11
568.8788 11
568.9622 13
569.0455 7
569.1289 2
569.2122 7
569.2955 1
569.3789 7
569.4622 22
569.5456 11
569.6289 4
569.7122 17
569.7956 14
569.8789 8
569.9623 6
570.0456 14
570.1289 10
570.2123 6
570.2956 6
570.3790 21
570.4623 8
570.5456 20
570.6290 18
570.7123 0
570.7957 11
570.8790 10
570.9623 19
571.0457 13
571.1290 16
571.2124 15
571.2957 11
571.3790 21
571.4624 16
571.5457 7
571.6291 6
571.7124 35
571.7957 8
571.8791 4
571.9624 4
572.0458 3
572.1291 2
572.2124 25
572.2958 8
572.3791 15
572.4625 8
572.5458 18
572.6291 19
572.7125 9
572.7958 8
572.8792 46
572.9625 27
573.0458 25
573.1292 7
573.2125 16
573.2959 4
573.3792 11
573.4625 6
573.5459 7
573.6292 18
573.7126 5
573.7959 8
573.8792 4
573.9626 5
574.0459 4
574.1293 5
574.2126 2
574.2959 11
574.3793 2
574.4626 15
574.5460 26
574.6293 4
574.7126 17
574.7960 1
574.8793 46
574.9627 10
575.0460 10
575.1293 7
575.2127 12
575.2960 6
575.3794 10
575.4627 13
575.5460 1
575.6294 2
575.7127 9
575.7961 3
575.8794 18
575.9627 8
576.0461 9
576.1294 43
576.2128 8
576.2961 5
576.3794 42
576.4628 8
576.5461 8
576.6295 27
576.7128 3
576.7961 15
576.8795 3
576.9628 5
577.0462 2
577.1295 16
577.2128 7
577.2962 8
577.3795 17
577.4629 15
577.5462 30
577.6295 1
577.7129 0
577.7962 0
577.8796 18
577.9629 9
578.0462 47
578.1296 4
578.2129 23
578.2963 25
578.3796 6
578.4629 11
578.5463 12
578.6296 0
578.7130 3
578.7963 30
578.8796 9
578.9630 21
579.0463 18
579.1297 12
579.2130 10
579.2963 0
579.3797 8
579.4630 4
579.5464 39
579.6297 7
579.7130 8
579.7964 6
579.8797 20
579.9631 25
580.0464 13
580.1297 12
580.2131 1
580.2964 12
580.3798 22
580.4631 10
580.5464 16
580.6298 15
580.7131 15
580.7965 26
580.8798 1
580.9631 17
581.0465 14
581.1298 14
581.2132 12
581.2965 33
581.3798 4
581.4632 13
581.5465 21
581.6299 44
581.7132 11
581.7965 10
581.8799 28
581.9632 7
582.0466 10
582.1299 4
582.2132 1
582.2966 3
582.3799 11
582.4633 0
582.5466 12
582.6299 4
582.7133 19
582.7966 12
582.8800 12
582.9633 12
583.0466 11
583.1300 2
583.2133 12
583.2967 9
583.3800 12
583.4633 11
583.5467 22
583.6300 6
583.7134 24
583.7967 10
583.8800 11
583.9634 22
584.0467 4
584.1301 6
584.2134 31
584.2967 22
584.3801 3
584.4634 11
584.5468 5
584.6301 26
584.7134 3
584.7968 14
584.8801 11
584.9635 15
585.0468 9
585.1301 5
585.2135 0
585.2968 12
585.3802 12
585.4635 1
585.5468 6
585.6302 13
585.7135 2
585.7969 8
585.8802 7
585.9635 7
586.0469 8
586.1302 4
586.2136 20
586.2969 28
586.3802 8
586.4636 20
586.5469 21
586.6303 6
586.7136 8
586.7969 8
586.8803 7
586.9636 7
587.0470 18
587.1303 5
587.2136 8
587.2970 4
587.3803 35
587.4637 7
587.5470 3
587.6303 30
587.7137 8
587.7970 2
587.8804 3
587.9637 18
588.0470 2
588.1304 4
588.2137 5
588.2971 5
588.3804 5
588.4637 32
588.5471 19
588.6304 15
588.7138 14
588.7971 18
588.8804 17
588.9638 11
589.0471 5
589.1305 15
589.2138 5
589.2971 5
589.3805 5
589.4638 6
589.5472 2
589.6305 7
589.7138 21
589.7972 14
589.8805 9
589.9639 12
590.0472 5
590.1305 5
590.2139 6
590.2972 2
590.3806 13
590.4639 7
590.5472 0
590.6306 6
590.7139 18
590.7973 5
590.8806 8
590.9639 15
591.0473 9
591.1306 0
591.2140 8
591.2973 13
591.3806 16
591.4640 4
591.5473 11
591.6307 9
591.7140 9
591.7973 7
591.8807 16
591.9640 17
592.0474 29
592.1307 16
592.2140 2
592.2974 5
592.3807 3
592.4641 20
592.5474 18
592.6307 9
592.7141 6
592.7974 20
592.8808 1
592.9641 5
593.0474 14
593.1308 13
593.2141 14
593.2975 7
593.3808 17
593.4641 7
593.5475 12
593.6308 6
593.7142 30
593.7975 13
593.8808 4
593.9642 17
594.0475 19
594.1309 26
594.2142 1
594.2975 15
594.3809 19
594.4642 7
594.5476 6
594.6309 6
594.7142 9
594.7976 4
594.8809 15
594.9643 2
595.0476 11
595.1309 5
595.2143 6
595.2976 15
595.3810 7
595.4643 3
595.5476 1
595.6310 1
595.7143 36
595.7977 6
595.8810 9
595.9643 13
596.0477 9
596.1310 11
596.2144 1
596.2977 9
596.3810 6
596.4644 7
596.5477 4
596.6311 11
596.7144 16
596.7977 9
596.8811 3
596.9644 16
597.0478 7
597.1311 7
597.2144 8
597.2978 15
597.3811 4
597.4645 6
597.5478 1
597.6311 8
597.7145 11
597.7978 36
597.8812 13
597.9645 11
598.0478 4
598.1312 10
598.2145 24
598.2979 17
598.3812 8
598.4645 4
598.5479 11
598.6312 5
598.7146 7
598.7979 3
598.8812 10
598.9646 7
599.0479 20
599.1313 10
599.2146 7
599.2979 3
599.3813 3
599.4646 4
599.5480 27
599.6313 9
599.7146 8
599.7980 11
599.8813 9
599.9647 0
