0.0000 34
0.0833 17
0.1667 65
0.2500 27
0.3334 21
0.4167 36
0.5000 43
0.5834 25
0.6667 18
0.7501 20
0.8334 8
0.9167 52
1.0001 25
1.0834 36
1.1668 28
1.2501 37
1.3334 31
1.4168 57
1.5001 52
1.5835 56
1.6668 33
1.7501 19
1.8335 30
1.9168 36
2.0002 12
2.0835 74
2.1668 35
2.2502 34
2.3335 54
2.4169 51
2.5002 17
2.5835 34
2.6669 39
2.7502 35
2.8336 39
2.9169 60
3.0002 36
3.0836 22
3.1669 19
3.2503 30
3.3336 38
3.4169 21
3.5003 52
3.5836 24
3.6670 41
3.7503 39
3.8336 26
3.9170 17
4.0003 36
4.0837 28
4.1670 38
4.2503 56
4.3337 36
4.4170 26
4.5004 30
4.5837 23
4.6670 32
4.7504 15
4.8337 19
4.9171 22
5.0004 25
5.0837 15
5.1671 22
5.2504 34
5.3338 25
5.4171 15
5.5004 32
5.5838 22
5.6671 16
5.7505 14
5.8338 21
5.9171 27
6.0005 60
6.0838 53
6.1672 58
6.2505 38
6.3338 41
6.4172 33
6.5005 24
6.5839 14
6.6672 74
6.7505 43
6.8339 61
6.9172 15
7.0006 18
7.0839 37
7.1672 28
7.2506 46
7.3339 36
7.4173 30
7.5006 28
7.5839 7
7.6673 23
7.7506 29
7.8340 25
7.9173 34
8.0006 13
8.0840 34
8.1673 22
8.2507 48
8.3340 31
8.4173 50
8.5007 55
8.5840 31
8.6674 53
8.7507 22
8.8340 29
8.9174 19
9.0007 50
9.0841 11
9.1674 34
9.2507 19
9.3341 40
9.4174 13
9.5008 36
9.5841 67
9.6674 74
9.7508 45
9.8341 23
9.9175 44
10.0008 31
10.0841 27
10.1675 36
10.2508 37
10.3342 59
10.4175 31
10.5008 29
10.5842 48
10.6675 21
10.7509 50
10.8342 17
10.9175 31
11.0009 23
11.0842 46
11.1676 31
11.2509 20
11.3342 32
11.4176 29
11.5009 30
11.5843 36
11.6676 36
11.7509 38
11.8343 34
11.9176 24
12.0010 74
12.0843 16
12.1676 23
12.2510 38
12.3343 23
12.4177 27
12.5010 23
12.5843 23
12.6677 35
12.7510 26
12.8344 35
12.9177 28
13.0010 11
13.0844 42
13.1677 37
13.2511 63
13.3344 15
13.4177 42
13.5011 31
13.5844 21
13.6678 28
13.7511 33
13.8344 29
13.9178 5
14.0011 9
14.0845 9
14.1678 24
14.2511 8
14.3345 17
14.4178 11
14.5012 39
14.5845 24
14.6678 31
14.7512 4
14.8345 14
14.9179 4
15.0012 4
15.0845 14
15.1679 28
15.2512 6
15.3346 55
15.4179 36
15.5012 14
15.5846 9
15.6679 11
15.7513 23
15.8346 7
15.9179 14
16.0013 12
16.0846 17
16.1680 49
16.2513 21
16.3346 35
16.4180 13
16.5013 29
16.5847 3
16.6680 8
16.7513 25
16.8347 30
16.9180 24
17.0014 26
17.0847 22
17.1680 10
17.2514 19
17.3347 10
17.4181 20
17.5014 6
17.5847 8
17.6681 21
17.7514 15
17.8348 16
17.9181 3
18.0014 16
18.0848 17
18.1681 25
18.2515 33
18.3348 19
18.4181 13
18.5015 21
18.5848 17
18.6682 16
18.7515 15
18.8348 25
18.9182 13
19.0015 7
19.0849 2
19.1682 12
19.2515 6
19.3349 27
19.4182 12
19.5016 7
19.5849 40
19.6682 9
19.7516 8
19.8349 10
19.9183 27
20.0016 19
20.0849 41
20.1683 8
20.2516 19
20.3350 7
20.4183 6
20.5016 18
20.5850 30
20.6683 5
20.7517 11
20.8350 15
20.9183 16
21.0017 23
21.0850 13
21.1684 16
21.2517 17
21.3350 14
21.4184 14
21.5017 7
21.5851 12
21.6684 12
21.7517 17
21.8351 7
21.9184 8
22.0018 3
22.0851 18
22.1684 12
22.2518 30
22.3351 14
22.4185 16
22.5018 21
22.5851 15
22.6685 9
22.7518 26
22.8352 16
22.9185 20
23.0018 20
23.0852 15
23.1685 10
23.2519 16
23.3352 54
23.4185 60
23.5019 15
23.5852 6
23.6686 21
23.7519 39
23.8352 6
23.9186 15
24.0019 2
24.0853 20
24.1686 23
24.2519 26
24.3353 37
24.4186 20
24.5020 43
24.5853 9
24.6686 15
24.7520 3
24.8353 12
24.9187 27
25.0020 18
25.0853 6
25.1687 14
25.2520 26
25.3354 9
25.4187 14
25.5020 5
25.5854 7
25.6687 7
25.7521 20
25.8354 10
25.9187 19
26.0021 16
26.0854 25
26.1688 41
26.2521 10
26.3354 8
26.4188 11
26.5021 14
26.5855 24
26.6688 13
26.7521 11
26.8355 11
26.9188 20
27.0022 24
27.0855 10
27.1688 13
27.2522 13
27.3355 4
27.4189 7
27.5022 3
27.5855 31
27.6689 33
27.7522 19
27.8356 25
27.9189 12
28.0022 30
28.0856 32
28.1689 28
28.2523 9
28.3356 16
28.4189 23
28.5023 3
28.5856 31
28.6690 19
28.7523 15
28.8356 18
28.9190 46
29.0023 17
29.0857 22
29.1690 4
29.2523 9
29.3357 34
29.4190 9
29.5024 16
29.5857 5
29.6690 6
29.7524 15
29.8357 33
29.9191 12
30.0024 21
30.0857 22
30.1691 8
30.2524 15
30.3358 17
30.4191 22
30.5024 8
30.5858 11
30.6691 28
30.7525 17
30.8358 17
30.9191 29
31.0025 12
31.0858 11
31.1692 26
31.2525 15
31.3358 28
31.4192 54
31.5025 24
31.5859 7
31.6692 14
31.7525 16
31.8359 26
31.9192 1
32.0026 10
32.0859 12
32.1692 11
32.2526 24
32.3359 11
32.4193 9
32.5026 11
32.5859 0
32.6693 34
32.7526 35
32.8360 8
32.9193 23
33.0026 9
33.0860 7
33.1693 67
33.2527 19
33.3360 34
33.4193 18
33.5027 9
33.5860 12
33.6694 7
33.7527 27
33.8360 15
33.9194 7
34.0027 22
34.0861 9
34.1694 23
34.2527 18
34.3361 26
34.4194 35
34.5028 37
34.5861 12
34.6694 49
34.7528 25
34.8361 42
34.9195 8
35.0028 6
35.0861 19
35.1695 16
35.2528 11
35.3362 6
35.4195 2
35.5028 25
35.5862 17
35.6695 12
35.7529 37
35.8362 2
35.9195 12
36.0029 9
36.0862 11
36.1696 10
36.2529 23
36.3362 9
36.4196 13
36.5029 22
36.5863 22
36.6696 34
36.7529 26
36.8363 8
36.9196 15
37.0030 6
37.0863 22
37.1696 18
37.2530 33
37.3363 3
37.4197 15
37.5030 22
37.5863 14
37.6697 15
37.7530 16
37.8364 9
37.9197 7
38.0030 0
38.0864 23
38.1697 17
38.2531 7
38.3364 17
38.4197 27
38.5031 19
38.5864 15
38.6698 26
38.7531 13
38.8364 14
38.9198 10
39.0031 13
39.0865 14
39.1698 27
39.2531 11
39.3365 26
39.4198 17
39.5032 18
39.5865 18
39.6698 17
39.7532 15
39.8365 7
39.9199 15
40.0032 6
40.0865 13
40.1699 26
40.2532 14
40.3366 6
40.4199 22
40.5032 5
40.5866 5
40.6699 11
40.7533 7
40.8366 27
40.9199 2
41.0033 23
41.0866 20
41.1700 42
41.2533 14
41.3366 9
41.4200 13
41.5033 24
41.5867 16
41.6700 17
41.7533 7
41.8367 6
41.9200 21
42.0034 20
42.0867 20
42.1700 4
42.2534 11
42.3367 19
42.4201 12
42.5034 5
42.5867 20
42.6701 31
42.7534 17
42.8368 5
42.9201 17
43.0034 27
43.0868 12
43.1701 13
43.2535 8
43.3368 17
43.4201 20
43.5035 12
43.5868 22
43.6702 17
43.7535 9
43.8368 18
43.9202 8
44.0035 48
44.0869 7
44.1702 4
44.2535 54
44.3369 16
44.4202 26
44.5036 11
44.5869 11
44.6702 36
44.7536 11
44.8369 14
44.9203 12
45.0036 6
45.0869 27
45.1703 3
45.2536 12
45.3370 19
45.4203 32
45.5036 13
45.5870 14
45.6703 17
45.7537 28
45.8370 21
45.9203 26
46.0037 13
46.0870 20
46.1704 4
46.2537 12
46.3370 36
46.4204 8
46.5037 41
46.5871 25
46.6704 23
46.7537 8
46.8371 6
46.9204 34
47.0038 13
47.0871 8
47.1704 11
47.2538 28
47.3371 24
47.4205 15
47.5038 12
47.5871 18
47.6705 20
47.7538 6
47.8372 17
47.9205 24
48.0038 12
48.0872 12
48.1705 12
48.2539 7
48.3372 16
48.4205 27
48.5039 24
48.5872 19
48.6706 9
48.7539 7
48.8372 14
48.9206 3
49.0039 24
49.0873 5
49.1706 5
49.2539 33
49.3373 20
49.4206 18
49.5040 3
49.5873 8
49.6706 15
49.7540 18
49.8373 15
49.9207 16
50.0040 25
50.0873 40
50.1707 10
50.2540 9
50.3374 5
50.4207 28
50.5040 26
50.5874 14
50.6707 41
50.7541 24
50.8374 5
50.9207 7
51.0041 21
51.0874 17
51.1708 13
51.2541 13
51.3374 13
51.4208 9
51.5041 18
51.5875 29
51.6708 25
51.7541 24
51.8375 23
51.9208 7
52.0042 10
52.0875 31
52.1708 25
52.2542 7
52.3375 12
52.4209 27
52.5042 8
52.5875 28
52.6709 16
52.7542 6
52.8376 5
52.9209 21
53.0042 10
53.0876 5
53.1709 19
53.2543 5
53.3376 12
53.4209 13
53.5043 17
53.5876 20
53.6710 11
53.7543 22
53.8376 28
53.9210 18
54.0043 17
54.0877 24
54.1710 11
54.2543 12
54.3377 29
54.4210 13
54.5044 11
54.5877 23
54.6710 2
54.7544 36
54.8377 7
54.9211 26
55.0044 19
55.0877 14
55.1711 21
55.2544 29
55.3378 12
55.4211 31
55.5044 19
55.5878 7
55.6711 31
55.7545 12
55.8378 7
55.9211 11
56.0045 16
56.0878 14
56.1712 11
56.2545 26
56.3378 9
56.4212 7
56.5045 9
56.5879 11
56.6712 11
56.7545 7
56.8379 17
56.9212 8
57.0046 23
57.0879 16
57.1712 10
57.2546 5
57.3379 15
57.4213 28
57.5046 1
57.5879 20
57.6713 19
57.7546 15
57.8380 12
57.9213 19
58.0046 20
58.0880 23
58.1713 18
58.2547 13
58.3380 14
58.4213 3
58.5047 20
58.5880 8
58.6714 16
58.7547 6
58.8380 4
58.9214 29
59.0047 25
59.0881 16
59.1714 19
59.2547 5
59.3381 4
59.4214 8
59.5048 12
59.5881 26
59.6714 7
59.7548 18
59.8381 2
59.9215 14
60.0048 18
60.0881 9
60.1715 11
60.2548 13
60.3382 4
60.4215 18
60.5048 25
60.5882 18
60.6715 19
60.7549 18
60.8382 11
60.9215 10
61.0049 8
61.0882 22
61.1716 33
61.2549 18
61.3382 16
61.4216 10
61.5049 21
61.5883 29
61.6716 23
61.7549 51
61.8383 10
61.9216 24
62.0050 35
62.0883 9
62.1716 23
62.2550 15
62.3383 13
62.4217 12
62.5050 12
62.5883 45
62.6717 8
62.7550 4
62.8384 10
62.9217 29
63.0050 6
63.0884 52
63.1717 8
63.2551 3
63.3384 20
63.4217 20
63.5051 32
63.5884 5
63.6718 46
63.7551 3
63.8384 23
63.9218 33
64.0051 4
64.0885 23
64.1718 24
64.2551 19
64.3385 26
64.4218 4
64.5052 10
64.5885 15
64.6718 28
64.7552 10
64.8385 28
64.9219 16
65.0052 15
65.0885 16
65.1719 13
65.2552 4
65.3386 13
65.4219 13
65.5052 30
65.5886 8
65.6719 10
65.7553 21
65.8386 22
65.9219 24
66.0053 20
66.0886 11
66.1720 32
66.2553 5
66.3386 9
66.4220 2
66.5053 18
66.5887 14
66.6720 21
66.7553 18
66.8387 25
66.9220 5
67.0054 13
67.0887 14
67.1720 21
67.2554 9
67.3387 7
67.4221 28
67.5054 11
67.5887 12
67.6721 11
67.7554 24
67.8388 15
67.9221 6
68.0054 17
68.0888 29
68.1721 8
68.2555 4
68.3388 10
68.4221 9
68.5055 8
68.5888 14
68.6722 2
68.7555 4
68.8388 6
68.9222 35
69.0055 4
69.0889 14
69.1722 3
69.2555 20
69.3389 37
69.4222 5
69.5056 23
69.5889 23
69.6722 11
69.7556 16
69.8389 3
69.9223 15
70.0056 22
70.0889 43
70.1723 20
70.2556 16
70.3390 24
70.4223 22
70.5056 21
70.5890 10
70.6723 26
70.7557 14
70.8390 9
70.9223 30
71.0057 28
71.0890 20
71.1724 4
71.2557 30
71.3390 4
71.4224 24
71.5057 9
71.5891 21
71.6724 17
71.7557 24
71.8391 3
71.9224 35
72.0058 29
72.0891 38
72.1724 6
72.2558 7
72.3391 5
72.4225 6
72.5058 11
72.5891 22
72.6725 28
72.7558 29
72.8392 20
72.9225 8
73.0058 30
73.0892 10
73.1725 19
73.2559 37
73.3392 31
73.4225 17
73.5059 17
73.5892 3
73.6726 50
73.7559 18
73.8392 25
73.9226 48
74.0059 17
74.0893 12
74.1726 18
74.2559 9
74.3393 3
74.4226 24
74.5060 11
74.5893 8
74.6726 15
74.7560 25
74.8393 14
74.9227 39
75.0060 16
75.0893 45
75.1727 43
75.2560 18
75.3394 28
75.4227 6
75.5060 13
75.5894 50
75.6727 24
75.7561 43
75.8394 13
75.9227 14
76.0061 24
76.0894 45
76.1728 7
76.2561 12
76.3394 29
76.4228 15
76.5061 4
76.5895 21
76.6728 6
76.7561 12
76.8395 21
76.9228 28
77.0062 13
77.0895 30
77.1728 11
77.2562 9
77.3395 14
77.4229 5
77.5062 17
77.5895 16
77.6729 13
77.7562 2
77.8396 9
77.9229 31
78.0062 13
78.0896 17
78.1729 5
78.2563 14
78.3396 11
78.4229 15
78.5063 22
78.5896 18
78.6730 9
78.7563 28
78.8396 20
78.9230 9
79.0063 16
79.0897 23
79.1730 17
79.2563 21
79.3397 21
79.4230 5
79.5064 12
79.5897 24
79.6730 10
79.7564 35
79.8397 8
79.9231 6
80.0064 27
80.0897 3
80.1731 23
80.2564 42
80.3398 34
80.4231 28
80.5064 26
80.5898 14
80.6731 16
80.7565 11
80.8398 16
80.9231 8
81.0065 10
81.0898 29
81.1732 7
81.2565 32
81.3398 13
81.4232 5
81.5065 6
81.5899 7
81.6732 23
81.7565 7
81.8399 15
81.9232 12
82.0066 6
82.0899 11
82.1732 13
82.2566 14
82.3399 5
82.4233 21
82.5066 16
82.5899 17
82.6733 18
82.7566 19
82.8400 11
82.9233 17
83.0066 6
83.0900 7
83.1733 19
83.2567 9
83.3400 15
83.4233 10
83.5067 10
83.5900 1
83.6734 7
83.7567 14
83.8400 9
83.9234 5
84.0067 12
84.0901 19
84.1734 16
84.2567 14
84.3401 18
84.4234 17
84.5068 14
84.5901 12
84.6734 19
84.7568 12
84.8401 12
84.9235 7
85.0068 24
85.0901 9
85.1735 11
85.2568 38
85.3402 18
85.4235 7
85.5068 10
85.5902 11
85.6735 16
85.7569 5
85.8402 24
85.9235 21
86.0069 15
86.0902 10
86.1736 26
86.2569 16
86.3402 21
86.4236 7
86.5069 30
86.5903 23
86.6736 28
86.7569 5
86.8403 22
86.9236 27
87.0070 24
87.0903 39
87.1736 15
87.2570 26
87.3403 27
87.4237 11
87.5070 28
87.5903 31
87.6737 21
87.7570 27
87.8404 18
87.9237 47
88.0070 16
88.0904 12
88.1737 10
88.2571 21
88.3404 29
88.4237 22
88.5071 31
88.5904 15
88.6738 31
88.7571 12
88.8404 20
88.9238 30
89.0071 31
89.0905 30
89.1738 19
89.2571 16
89.3405 8
89.4238 28
89.5072 22
89.5905 18
89.6738 15
89.7572 24
89.8405 48
89.9239 13
90.0072 23
90.0905 21
90.1739 34
90.2572 47
90.3406 30
90.4239 45
90.5072 20
90.5906 28
90.6739 37
90.7573 57
90.8406 20
90.9239 39
91.0073 22
91.0906 20
91.1740 10
91.2573 41
91.3406 29
91.4240 17
91.5073 34
91.5907 30
91.6740 13
91.7573 24
91.8407 36
91.9240 22
92.0074 33
92.0907 35
92.1740 25
92.2574 31
92.3407 21
92.4241 24
92.5074 30
92.5907 25
92.6741 30
92.7574 26
92.8408 40
92.9241 47
93.0074 73
93.0908 44
93.1741 48
93.2575 47
93.3408 56
93.4241 29
93.5075 54
93.5908 37
93.6742 24
93.7575 46
93.8408 34
93.9242 36
94.0075 56
94.0909 41
94.1742 39
94.2575 81
94.3409 53
94.4242 33
94.5076 35
94.5909 50
94.6742 44
94.7576 50
94.8409 31
94.9243 28
95.0076 36
95.0909 32
95.1743 28
95.2576 31
95.3410 20
95.4243 45
95.5076 41
95.5910 72
95.6743 50
95.7577 43
95.8410 27
95.9243 18
96.0077 32
96.0910 52
96.1744 61
96.2577 43
96.3410 38
96.4244 44
96.5077 27
96.5911 48
96.6744 41
96.7577 47
96.8411 35
96.9244 39
97.0078 53
97.0911 43
97.1744 35
97.2578 52
97.3411 57
97.4245 33
97.5078 49
97.5911 49
97.6745 42
97.7578 32
97.8412 38
97.9245 34
98.0078 28
98.0912 16
98.1745 14
98.2579 21
98.3412 13
98.4245 13
98.5079 18
98.5912 40
98.6746 40
98.7579 18
98.8412 36
98.9246 55
99.0079 30
99.0913 39
99.1746 41
99.2579 22
99.3413 20
99.4246 23
99.5080 18
99.5913 22
99.6746 24
99.7580 19
99.8413 20
99.9247 48
100.0080 51
100.0913 15
100.1747 27
100.2580 20
100.3414 15
100.4247 19
100.5080 33
100.5914 15
100.6747 26
100.7581 10
100.8414 16
100.9247 20
101.0081 4
101.0914 7
101.1748 8
101.2581 13
101.3414 37
101.4248 28
101.5081 9
101.5915 14
101.6748 20
101.7581 16
101.8415 47
101.9248 7
102.0082 12
102.0915 17
102.1748 16
102.2582 18
102.3415 18
102.4249 17
102.5082 18
102.5915 32
102.6749 35
102.7582 13
102.8416 40
102.9249 21
103.0082 28
103.0916 55
103.1749 19
103.2583 24
103.3416 12
103.4249 28
103.5083 23
103.5916 22
103.6750 29
103.7583 18
103.8416 21
103.9250 35
104.0083 27
104.0917 19
104.1750 22
104.2583 19
104.3417 30
104.4250 50
104.5084 36
104.5917 28
104.6750 25
104.7584 14
104.8417 29
104.9251 38
105.0084 26
105.0917 102
105.1751 46
105.2584 40
105.3418 39
105.4251 31
105.5084 37
105.5918 52
105.6751 32
105.7585 79
105.8418 50
105.9251 49
106.0085 48
106.0918 72
106.1752 42
106.2585 83
106.3418 54
106.4252 81
106.5085 50
106.5919 40
106.6752 65
106.7585 68
106.8419 64
106.9252 42
107.0086 44
107.0919 53
107.1752 68
107.2586 64
107.3419 58
107.4253 55
107.5086 53
107.5919 54
107.6753 62
107.7586 49
107.8420 60
107.9253 70
108.0086 69
108.0920 40
108.1753 78
108.2587 57
108.3420 72
108.4253 99
108.5087 59
108.5920 82
108.6754 96
108.7587 66
108.8420 74
108.9254 89
109.0087 90
109.0921 85
109.1754 80
109.2587 109
109.3421 95
109.4254 105
109.5088 76
109.5921 106
109.6754 108
109.7588 95
109.8421 86
109.9255 66
110.0088 83
110.0921 100
110.1755 104
110.2588 113
110.3422 93
110.4255 134
110.5088 109
110.5922 73
110.6755 112
110.7589 94
110.8422 70
110.9255 82
111.0089 65
111.0922 95
111.1756 77
111.2589 69
111.3422 51
111.4256 61
111.5089 81
111.5923 59
111.6756 63
111.7589 64
111.8423 47
111.9256 92
112.0090 51
112.0923 63
112.1756 53
112.2590 56
112.3423 72
112.4257 74
112.5090 45
112.5923 84
112.6757 68
112.7590 74
112.8424 89
112.9257 95
113.0090 91
113.0924 129
113.1757 66
113.2591 80
113.3424 120
113.4257 82
113.5091 86
113.5924 114
113.6758 89
113.7591 111
113.8424 95
113.9258 86
114.0091 64
114.0925 63
114.1758 82
114.2591 85
114.3425 73
114.4258 61
114.5092 63
114.5925 73
114.6758 55
114.7592 49
114.8425 55
114.9259 93
115.0092 60
115.0925 64
115.1759 55
115.2592 110
115.3426 46
115.4259 50
115.5092 44
115.5926 37
115.6759 49
115.7593 29
115.8426 35
115.9259 46
116.0093 53
116.0926 89
116.1760 39
116.2593 41
116.3426 55
116.4260 47
116.5093 62
116.5927 49
116.6760 43
116.7593 47
116.8427 65
116.9260 22
117.0094 60
117.0927 52
117.1760 19
117.2594 39
117.3427 48
117.4261 22
117.5094 24
117.5927 28
117.6761 41
117.7594 51
117.8428 34
117.9261 27
118.0094 10
118.0928 12
118.1761 38
118.2595 28
118.3428 28
118.4261 20
118.5095 11
118.5928 15
118.6762 19
118.7595 21
118.8428 33
118.9262 12
119.0095 13
119.0929 17
119.1762 20
119.2595 15
119.3429 16
119.4262 20
119.5096 47
119.5929 30
119.6762 26
119.7596 19
119.8429 45
119.9263 20
120.0096 5
120.0929 21
120.1763 33
120.2596 10
120.3430 26
120.4263 19
120.5096 21
120.5930 14
120.6763 18
120.7597 8
120.8430 32
120.9263 17
121.0097 12
121.0930 13
121.1764 7
121.2597 13
121.3430 17
121.4264 13
121.5097 16
121.5931 52
121.6764 23
121.7597 17
121.8431 43
121.9264 19
122.0098 54
122.0931 42
122.1764 55
122.2598 35
122.3431 46
122.4265 83
122.5098 69
122.5931 57
122.6765 33
122.7598 67
122.8432 32
122.9265 47
123.0098 61
123.0932 76
123.1765 65
123.2599 59
123.3432 58
123.4265 45
123.5099 43
123.5932 69
123.6766 81
123.7599 60
123.8432 54
123.9266 64
124.0099 43
124.0933 41
124.1766 72
124.2599 67
124.3433 60
124.4266 69
124.5100 58
124.5933 63
124.6766 65
124.7600 59
124.8433 98
124.9267 84
125.0100 74
125.0933 86
125.1767 111
125.2600 87
125.3434 160
125.4267 145
125.5100 104
125.5934 96
125.6767 113
125.7601 125
125.8434 102
125.9267 158
126.0101 139
126.0934 163
126.1768 141
126.2601 125
126.3434 182
126.4268 155
126.5101 134
126.5935 121
126.6768 120
126.7601 160
126.8435 122
126.9268 109
127.0102 145
127.0935 165
127.1768 143
127.2602 100
127.3435 151
127.4269 131
127.5102 149
127.5935 142
127.6769 133
127.7602 153
127.8436 128
127.9269 170
128.0102 146
128.0936 177
128.1769 146
128.2603 184
128.3436 163
128.4269 177
128.5103 162
128.5936 169
128.6770 168
128.7603 178
128.8436 208
128.9270 165
129.0103 181
129.0937 163
129.1770 197
129.2603 177
129.3437 160
129.4270 227
129.5104 164
129.5937 168
129.6770 152
129.7604 185
129.8437 225
129.9271 183
130.0104 175
130.0937 181
130.1771 221
130.2604 193
130.3438 175
130.4271 177
130.5104 192
130.5938 178
130.6771 203
130.7605 202
130.8438 248
130.9271 186
131.0105 217
131.0938 228
131.1772 182
131.2605 196
131.3438 204
131.4272 209
131.5105 241
131.5939 211
131.6772 195
131.7605 210
131.8439 220
131.9272 162
132.0106 181
132.0939 166
132.1772 209
132.2606 220
132.3439 187
132.4273 195
132.5106 210
132.5939 183
132.6773 173
132.7606 172
132.8440 184
132.9273 176
133.0106 165
133.0940 177
133.1773 141
133.2607 148
133.3440 163
133.4273 180
133.5107 150
133.5940 142
133.6774 97
133.7607 143
133.8440 183
133.9274 192
134.0107 150
134.0941 163
134.1774 153
134.2607 164
134.3441 146
134.4274 168
134.5108 188
134.5941 150
134.6774 175
134.7608 184
134.8441 154
134.9275 149
135.0108 167
135.0941 182
135.1775 173
135.2608 123
135.3442 138
135.4275 124
135.5108 154
135.5942 169
135.6775 150
135.7609 122
135.8442 143
135.9275 100
136.0109 129
136.0942 119
136.1776 100
136.2609 108
136.3442 104
136.4276 142
136.5109 115
136.5943 108
136.6776 121
136.7609 106
136.8443 117
136.9276 95
137.0110 85
137.0943 126
137.1776 96
137.2610 116
137.3443 87
137.4277 139
137.5110 90
137.5943 111
137.6777 126
137.7610 109
137.8444 112
137.9277 113
138.0110 88
138.0944 124
138.1777 144
138.2611 94
138.3444 86
138.4277 116
138.5111 98
138.5944 90
138.6778 82
138.7611 92
138.8444 79
138.9278 92
139.0111 89
139.0945 75
139.1778 69
139.2611 102
139.3445 74
139.4278 69
139.5112 69
139.5945 82
139.6778 74
139.7612 88
139.8445 96
139.9279 93
140.0112 90
140.0945 125
140.1779 119
140.2612 98
140.3446 96
140.4279 92
140.5112 141
140.5946 139
140.6779 159
140.7613 103
140.8446 142
140.9279 128
141.0113 148
141.0946 139
141.1780 135
141.2613 153
141.3446 137
141.4280 139
141.5113 131
141.5947 141
141.6780 135
141.7613 116
141.8447 160
141.9280 118
142.0114 154
142.0947 140
142.1780 123
142.2614 182
142.3447 141
142.4281 157
142.5114 163
142.5947 151
142.6781 191
142.7614 148
142.8448 199
142.9281 197
143.0114 180
143.0948 194
143.1781 212
143.2615 213
143.3448 236
143.4281 258
143.5115 217
143.5948 244
143.6782 276
143.7615 271
143.8448 334
143.9282 231
144.0115 268
144.0949 309
144.1782 321
144.2615 290
144.3449 336
144.4282 318
144.5116 317
144.5949 361
144.6782 277
144.7616 305
144.8449 297
144.9283 302
145.0116 269
145.0949 302
145.1783 332
145.2616 256
145.3450 311
145.4283 260
145.5116 296
145.5950 248
145.6783 268
145.7617 232
145.8450 216
145.9283 261
146.0117 230
146.0950 272
146.1784 240
146.2617 215
146.3450 244
146.4284 243
146.5117 242
146.5951 198
146.6784 247
146.7617 224
146.8451 251
146.9284 221
147.0118 195
147.0951 264
147.1784 240
147.2618 257
147.3451 289
147.4285 305
147.5118 252
147.5951 272
147.6785 290
147.7618 292
147.8452 293
147.9285 313
148.0118 287
148.0952 313
148.1785 336
148.2619 305
148.3452 304
148.4285 330
148.5119 336
148.5952 387
148.6786 334
148.7619 319
148.8452 339
148.9286 276
149.0119 340
149.0953 287
149.1786 272
149.2619 288
149.3453 259
149.4286 258
149.5120 232
149.5953 208
149.6786 191
149.7620 233
149.8453 228
149.9287 214
150.0120 178
150.0953 209
150.1787 215
150.2620 178
150.3454 141
150.4287 166
150.5120 158
150.5954 171
150.6787 182
150.7621 147
150.8454 93
150.9287 128
151.0121 121
151.0954 129
151.1788 139
151.2621 141
151.3454 129
151.4288 156
151.5121 162
151.5955 113
151.6788 114
151.7621 132
151.8455 135
151.9288 178
152.0122 142
152.0955 96
152.1788 113
152.2622 141
152.3455 132
152.4289 154
152.5122 134
152.5955 138
152.6789 114
152.7622 125
152.8456 138
152.9289 93
153.0122 98
153.0956 99
153.1789 99
153.2623 89
153.3456 102
153.4289 58
153.5123 75
153.5956 70
153.6790 81
153.7623 57
153.8456 39
153.9290 54
154.0123 77
154.0957 53
154.1790 59
154.2623 58
154.3457 53
154.4290 59
154.5124 36
154.5957 53
154.6790 47
154.7624 44
154.8457 39
154.9291 46
155.0124 50
155.0957 37
155.1791 32
155.2624 47
155.3458 42
155.4291 50
155.5124 36
155.5958 44
155.6791 43
155.7625 37
155.8458 40
155.9291 67
156.0125 41
156.0958 46
156.1792 37
156.2625 63
156.3458 59
156.4292 61
156.5125 75
156.5959 49
156.6792 40
156.7625 91
156.8459 75
156.9292 49
157.0126 46
157.0959 47
157.1792 58
157.2626 56
157.3459 66
157.4293 69
157.5126 58
157.5959 47
157.6793 76
157.7626 70
157.8460 77
157.9293 103
158.0126 79
158.0960 59
158.1793 107
158.2627 95
158.3460 64
158.4293 79
158.5127 56
158.5960 104
158.6794 74
158.7627 106
158.8460 96
158.9294 86
159.0127 108
159.0961 102
159.1794 105
159.2627 102
159.3461 108
159.4294 123
159.5128 89
159.5961 96
159.6794 134
159.7628 95
159.8461 86
159.9295 96
160.0128 86
160.0961 107
160.1795 123
160.2628 117
160.3462 123
160.4295 126
160.5128 120
160.5962 121
160.6795 142
160.7629 113
160.8462 157
160.9295 138
161.0129 180
161.0962 128
161.1796 185
161.2629 201
161.3462 204
161.4296 206
161.5129 242
161.5963 262
161.6796 217
161.7629 247
161.8463 273
161.9296 250
162.0130 285
162.0963 285
162.1796 300
162.2630 345
162.3463 313
162.4297 354
162.5130 345
162.5963 318
162.6797 341
162.7630 359
162.8464 334
162.9297 382
163.0130 344
163.0964 346
163.1797 338
163.2631 368
163.3464 364
163.4297 331
163.5131 336
163.5964 354
163.6798 339
163.7631 335
163.8464 314
163.9298 354
164.0131 364
164.0965 344
164.1798 306
164.2631 312
164.3465 318
164.4298 373
164.5132 360
164.5965 338
164.6798 316
164.7632 326
164.8465 355
164.9299 349
165.0132 335
165.0965 422
165.1799 437
165.2632 368
165.3466 390
165.4299 387
165.5132 365
165.5966 439
165.6799 497
165.7633 445
165.8466 418
165.9299 473
166.0133 505
166.0966 511
166.1800 482
166.2633 552
166.3466 532
166.4300 524
166.5133 513
166.5967 519
166.6800 522
166.7633 534
166.8467 615
166.9300 522
167.0134 568
167.0967 590
167.1800 607
167.2634 532
167.3467 511
167.4301 544
167.5134 518
167.5967 585
167.6801 544
167.7634 492
167.8468 458
167.9301 478
168.0134 493
168.0968 462
168.1801 406
168.2635 420
168.3468 511
168.4301 448
168.5135 425
168.5968 406
168.6802 390
168.7635 436
168.8468 370
168.9302 337
169.0135 349
169.0969 340
169.1802 321
169.2635 284
169.3469 266
169.4302 225
169.5136 302
169.5969 270
169.6802 340
169.7636 289
169.8469 318
169.9303 306
170.0136 242
170.0969 253
170.1803 246
170.2636 226
170.3470 217
170.4303 209
170.5136 231
170.5970 206
170.6803 215
170.7637 184
170.8470 201
170.9303 212
171.0137 192
171.0970 267
171.1804 195
171.2637 197
171.3470 193
171.4304 163
171.5137 186
171.5971 224
171.6804 165
171.7637 178
171.8471 204
171.9304 181
172.0138 187
172.0971 185
172.1804 207
172.2638 139
172.3471 195
172.4305 159
172.5138 167
172.5971 145
172.6805 158
172.7638 171
172.8472 157
172.9305 111
173.0138 125
173.0972 108
173.1805 124
173.2639 76
173.3472 87
173.4305 116
173.5139 79
173.5972 106
173.6806 48
173.7639 51
173.8472 62
173.9306 83
174.0139 51
174.0973 54
174.1806 49
174.2639 50
174.3473 43
174.4306 26
174.5140 57
174.5973 28
174.6806 31
174.7640 31
174.8473 25
174.9307 35
175.0140 20
175.0973 26
175.1807 32
175.2640 32
175.3474 26
175.4307 36
175.5140 28
175.5974 55
175.6807 43
175.7641 30
175.8474 20
175.9307 43
176.0141 48
176.0974 42
176.1808 69
176.2641 49
176.3474 63
176.4308 60
176.5141 56
176.5975 103
176.6808 104
176.7641 127
176.8475 103
176.9308 113
177.0142 85
177.0975 119
177.1808 140
177.2642 131
177.3475 136
177.4309 119
177.5142 161
177.5975 151
177.6809 133
177.7642 185
177.8476 168
177.9309 156
178.0142 178
178.0976 183
178.1809 211
178.2643 193
178.3476 230
178.4309 242
178.5143 226
178.5976 193
178.6810 207
178.7643 196
178.8476 223
178.9310 186
179.0143 193
179.0977 251
179.1810 195
179.2643 225
179.3477 181
179.4310 241
179.5144 197
179.5977 215
179.6810 270
179.7644 172
179.8477 180
179.9311 206
180.0144 250
180.0977 259
180.1811 257
180.2644 267
180.3478 234
180.4311 248
180.5144 269
180.5978 247
180.6811 271
180.7645 312
180.8478 281
180.9311 325
181.0145 282
181.0978 311
181.1812 312
181.2645 304
181.3478 327
181.4312 308
181.5145 366
181.5979 346
181.6812 388
181.7645 359
181.8479 384
181.9312 414
182.0146 430
182.0979 435
182.1812 466
182.2646 465
182.3479 441
182.4313 454
182.5146 492
182.5979 502
182.6813 504
182.7646 464
182.8480 508
182.9313 495
183.0146 466
183.0980 498
183.1813 510
183.2647 497
183.3480 549
183.4313 481
183.5147 606
183.5980 489
183.6814 553
183.7647 478
183.8480 511
183.9314 491
184.0147 515
184.0981 509
184.1814 491
184.2647 483
184.3481 465
184.4314 495
184.5148 421
184.5981 485
184.6814 401
184.7648 449
184.8481 437
184.9315 383
185.0148 415
185.0981 406
185.1815 375
185.2648 391
185.3482 285
185.4315 381
185.5148 329
185.5982 355
185.6815 376
185.7649 298
185.8482 372
185.9315 341
186.0149 316
186.0982 345
186.1816 302
186.2649 355
186.3482 336
186.4316 359
186.5149 340
186.5983 290
186.6816 328
186.7649 283
186.8483 387
186.9316 325
187.0150 336
187.0983 327
187.1816 331
187.2650 374
187.3483 319
187.4317 338
187.5150 345
187.5983 384
187.6817 416
187.7650 351
187.8484 306
187.9317 359
188.0150 384
188.0984 352
188.1817 348
188.2651 296
188.3484 351
188.4317 390
188.5151 304
188.5984 312
188.6818 318
188.7651 295
188.8484 297
188.9318 311
189.0151 265
189.0985 272
189.1818 202
189.2651 288
189.3485 251
189.4318 213
189.5152 214
189.5985 163
189.6818 225
189.7652 227
189.8485 221
189.9319 151
190.0152 152
190.0985 117
190.1819 191
190.2652 140
190.3486 125
190.4319 139
190.5152 99
190.5986 101
190.6819 81
190.7653 70
190.8486 81
190.9319 79
191.0153 78
191.0986 90
191.1820 62
191.2653 62
191.3486 111
191.4320 57
191.5153 58
191.5987 63
191.6820 56
191.7653 59
191.8487 32
191.9320 59
192.0154 49
192.0987 55
192.1820 61
192.2654 61
192.3487 48
192.4321 57
192.5154 57
192.5987 46
192.6821 52
192.7654 85
192.8488 58
192.9321 93
193.0154 77
193.0988 70
193.1821 35
193.2655 76
193.3488 72
193.4321 104
193.5155 67
193.5988 84
193.6822 84
193.7655 67
193.8488 88
193.9322 76
194.0155 83
194.0989 97
194.1822 94
194.2655 95
194.3489 141
194.4322 137
194.5156 125
194.5989 192
194.6822 140
194.7656 143
194.8489 179
194.9323 180
195.0156 211
195.0989 207
195.1823 231
195.2656 211
195.3490 213
195.4323 243
195.5156 218
195.5990 276
195.6823 281
195.7657 247
195.8490 281
195.9323 268
196.0157 326
196.0990 286
196.1824 304
196.2657 334
196.3490 386
196.4324 309
196.5157 286
196.5991 310
196.6824 323
196.7657 390
196.8491 412
196.9324 401
197.0158 395
197.0991 392
197.1824 377
197.2658 364
197.3491 410
197.4325 397
197.5158 391
197.5991 429
197.6825 427
197.7658 460
197.8492 478
197.9325 461
198.0158 495
198.0992 435
198.1825 520
198.2659 519
198.3492 523
198.4325 553
198.5159 592
198.5992 636
198.6826 564
198.7659 662
198.8492 616
198.9326 614
199.0159 677
199.0993 665
199.1826 749
199.2659 736
199.3493 763
199.4326 808
199.5160 890
199.5993 769
199.6826 921
199.7660 916
199.8493 971
199.9327 937
200.0160 934
200.0993 1014
200.1827 1023
200.2660 1039
200.3494 1052
200.4327 1116
200.5160 1146
200.5994 1105
200.6827 1061
200.7661 1101
200.8494 1155
200.9327 1240
201.0161 1151
201.0994 1284
201.1828 1258
201.2661 1406
201.3494 1324
201.4328 1212
201.5161 1351
201.5995 1282
201.6828 1344
201.7661 1403
201.8495 1356
201.9328 1411
202.0162 1303
202.0995 1255
202.1828 1402
202.2662 1351
202.3495 1352
202.4329 1425
202.5162 1358
202.5995 1351
202.6829 1222
202.7662 1318
202.8496 1290
202.9329 1225
203.0162 1218
203.0996 1236
203.1829 1263
203.2663 1190
203.3496 1218
203.4329 1141
203.5163 1156
203.5996 1129
203.6830 1108
203.7663 1031
203.8496 1068
203.9330 1140
204.0163 1049
204.0997 962
204.1830 937
204.2663 942
204.3497 958
204.4330 872
204.5164 828
204.5997 826
204.6830 931
204.7664 876
204.8497 899
204.9331 903
205.0164 870
205.0997 827
205.1831 694
205.2664 737
205.3498 785
205.4331 757
205.5164 709
205.5998 692
205.6831 673
205.7665 705
205.8498 660
205.9331 704
206.0165 693
206.0998 598
206.1832 601
206.2665 617
206.3498 613
206.4332 606
206.5165 556
206.5999 533
206.6832 567
206.7665 505
206.8499 544
206.9332 499
207.0166 500
207.0999 456
207.1832 452
207.2666 401
207.3499 417
207.4333 400
207.5166 354
207.5999 370
207.6833 333
207.7666 374
207.8500 341
207.9333 324
208.0166 276
208.1000 318
208.1833 309
208.2667 295
208.3500 238
208.4333 243
208.5167 224
208.6000 247
208.6834 214
208.7667 179
208.8500 205
208.9334 181
209.0167 196
209.1001 145
209.1834 154
209.2667 129
209.3501 161
209.4334 98
209.5168 100
209.6001 112
209.6834 92
209.7668 55
209.8501 71
209.9335 63
210.0168 65
210.1001 42
210.1835 37
210.2668 65
210.3502 41
210.4335 37
210.5168 37
210.6002 47
210.6835 25
210.7669 20
210.8502 60
210.9335 19
211.0169 33
211.1002 41
211.1836 32
211.2669 22
211.3502 28
211.4336 31
211.5169 34
211.6003 65
211.6836 43
211.7669 54
211.8503 92
211.9336 55
212.0170 66
212.1003 76
212.1836 102
212.2670 98
212.3503 71
212.4337 111
212.5170 125
212.6003 145
212.6837 120
212.7670 136
212.8504 162
212.9337 156
213.0170 200
213.1004 204
213.1837 205
213.2671 246
213.3504 292
213.4337 266
213.5171 308
213.6004 284
213.6838 345
213.7671 344
213.8504 333
213.9338 359
214.0171 443
214.1005 419
214.1838 447
214.2671 495
214.3505 496
214.4338 517
214.5172 514
214.6005 609
214.6838 589
214.7672 594
214.8505 635
214.9339 722
215.0172 702
215.1005 783
215.1839 827
215.2672 922
215.3506 900
215.4339 987
215.5172 982
215.6006 1062
215.6839 1031
215.7673 1128
215.8506 1145
215.9339 1151
216.0173 1231
216.1006 1291
216.1840 1359
216.2673 1344
216.3506 1366
216.4340 1368
216.5173 1440
216.6007 1398
216.6840 1497
216.7673 1574
216.8507 1631
216.9340 1700
217.0174 1637
217.1007 1815
217.1840 1815
217.2674 1661
217.3507 1841
217.4341 1891
217.5174 1911
217.6007 1868
217.6841 1871
217.7674 1982
217.8508 1934
217.9341 1942
218.0174 1932
218.1008 1981
218.1841 1999
218.2675 2057
218.3508 2067
218.4341 2144
218.5175 2031
218.6008 2172
218.6842 2111
218.7675 2092
218.8508 2196
218.9342 2118
219.0175 2033
219.1009 2146
219.1842 2216
219.2675 2296
219.3509 2221
219.4342 2139
219.5176 1998
219.6009 2144
219.6842 2071
219.7676 2086
219.8509 2030
219.9343 1978
220.0176 2102
220.1009 2013
220.1843 1988
220.2676 2024
220.3510 1985
220.4343 1851
220.5176 1970
220.6010 1814
220.6843 1912
220.7677 1889
220.8510 1930
220.9343 1824
221.0177 1882
221.1010 1901
221.1844 1867
221.2677 1930
221.3510 1752
221.4344 1789
221.5177 1756
221.6011 1869
221.6844 1968
221.7677 1776
221.8511 1910
221.9344 1876
222.0178 1757
222.1011 1832
222.1844 1805
222.2678 1787
222.3511 1674
222.4345 1711
222.5178 1843
222.6011 1783
222.6845 1619
222.7678 1666
222.8512 1863
222.9345 1827
223.0178 1622
223.1012 1747
223.1845 1625
223.2679 1604
223.3512 1596
223.4345 1588
223.5179 1647
223.6012 1728
223.6846 1622
223.7679 1519
223.8512 1591
223.9346 1408
224.0179 1412
224.1013 1358
224.1846 1414
224.2679 1356
224.3513 1433
224.4346 1368
224.5180 1323
224.6013 1364
224.6846 1312
224.7680 1342
224.8513 1348
224.9347 1245
225.0180 1263
225.1013 1190
225.1847 1154
225.2680 1060
225.3514 1146
225.4347 1122
225.5180 1032
225.6014 1007
225.6847 893
225.7681 924
225.8514 936
225.9347 817
226.0181 913
226.1014 895
226.1848 742
226.2681 779
226.3514 697
226.4348 745
226.5181 729
226.6015 577
226.6848 629
226.7681 629
226.8515 546
226.9348 560
227.0182 518
227.1015 471
227.1848 495
227.2682 461
227.3515 439
227.4349 420
227.5182 329
227.6015 325
227.6849 310
227.7682 304
227.8516 313
227.9349 263
228.0182 198
228.1016 232
228.1849 231
228.2683 200
228.3516 159
228.4349 133
228.5183 166
228.6016 139
228.6850 166
228.7683 113
228.8516 137
228.9350 143
229.0183 94
229.1017 109
229.1850 82
229.2683 87
229.3517 62
229.4350 82
229.5184 78
229.6017 65
229.6850 82
229.7684 68
229.8517 97
229.9351 97
230.0184 83
230.1017 116
230.1851 72
230.2684 92
230.3518 107
230.4351 94
230.5184 104
230.6018 153
230.6851 170
230.7685 137
230.8518 163
230.9351 156
231.0185 206
231.1018 176
231.1852 234
231.2685 215
231.3518 246
231.4352 272
231.5185 298
231.6019 341
231.6852 363
231.7685 356
231.8519 383
231.9352 444
232.0186 425
232.1019 451
232.1852 454
232.2686 552
232.3519 535
232.4353 556
232.5186 554
232.6019 601
232.6853 636
232.7686 655
232.8520 747
232.9353 788
233.0186 830
233.1020 721
233.1853 848
233.2687 866
233.3520 961
233.4353 982
233.5187 1024
233.6020 1064
233.6854 1143
233.7687 1161
233.8520 1233
233.9354 1305
234.0187 1315
234.1021 1400
234.1854 1452
234.2687 1454
234.3521 1427
234.4354 1604
234.5188 1500
234.6021 1596
234.6854 1760
234.7688 1730
234.8521 1772
234.9355 1818
235.0188 2006
235.1021 1917
235.1855 1941
235.2688 1974
235.3522 1896
235.4355 2167
235.5188 2079
235.6022 2162
235.6855 2156
235.7689 2030
235.8522 2242
235.9355 2316
236.0189 2259
236.1022 2372
236.1856 2314
236.2689 2312
236.3522 2492
236.4356 2373
236.5189 2496
236.6023 2487
236.6856 2457
236.7689 2673
236.8523 2585
236.9356 2628
237.0190 2552
237.1023 2603
237.1856 2488
237.2690 2518
237.3523 2622
237.4357 2512
237.5190 2464
237.6023 2433
237.6857 2489
237.7690 2530
237.8524 2378
237.9357 2389
238.0190 2437
238.1024 2470
238.1857 2311
238.2691 2446
238.3524 2374
238.4357 2401
238.5191 2225
238.6024 2322
238.6858 2215
238.7691 2166
238.8524 2037
238.9358 2088
239.0191 2074
239.1025 2085
239.1858 1892
239.2691 1977
239.3525 1962
239.4358 1927
239.5192 1900
239.6025 1852
239.6858 1703
239.7692 1796
239.8525 1667
239.9359 1709
240.0192 1813
240.1025 1633
240.1859 1639
240.2692 1451
240.3526 1553
240.4359 1532
240.5192 1360
240.6026 1476
240.6859 1443
240.7693 1308
240.8526 1245
240.9359 1321
241.0193 1269
241.1026 1178
241.1860 1167
241.2693 1104
241.3526 1170
241.4360 1066
241.5193 993
241.6027 995
241.6860 1010
241.7693 935
241.8527 997
241.9360 1003
242.0194 908
242.1027 901
242.1860 880
242.2694 796
242.3527 863
242.4361 804
242.5194 812
242.6027 763
242.6861 697
242.7694 689
242.8528 720
242.9361 682
243.0194 656
243.1028 641
243.1861 610
243.2695 631
243.3528 586
243.4361 559
243.5195 606
243.6028 660
243.6862 600
243.7695 559
243.8528 597
243.9362 538
244.0195 468
244.1029 523
244.1862 517
244.2695 519
244.3529 511
244.4362 529
244.5196 526
244.6029 511
244.6862 507
244.7696 542
244.8529 430
244.9363 534
245.0196 506
245.1029 547
245.1863 558
245.2696 496
245.3530 564
245.4363 578
245.5196 519
245.6030 539
245.6863 537
245.7697 508
245.8530 513
245.9363 571
246.0197 547
246.1030 566
246.1864 557
246.2697 584
246.3530 608
246.4364 601
246.5197 622
246.6031 655
246.6864 633
246.7697 652
246.8531 715
246.9364 638
247.0198 739
247.1031 717
247.1864 700
247.2698 781
247.3531 791
247.4365 810
247.5198 852
247.6031 852
247.6865 877
247.7698 957
247.8532 867
247.9365 993
248.0198 1069
248.1032 1007
248.1865 1142
248.2699 1139
248.3532 1172
248.4365 1271
248.5199 1300
248.6032 1342
248.6866 1400
248.7699 1366
248.8532 1412
248.9366 1533
249.0199 1513
249.1033 1504
249.1866 1717
249.2699 1727
249.3533 1873
249.4366 1854
249.5200 1807
249.6033 2020
249.6866 1996
249.7700 2024
249.8533 2124
249.9367 2198
250.0200 2117
250.1033 2394
250.1867 2227
250.2700 2481
250.3534 2407
250.4367 2619
250.5200 2579
250.6034 2614
250.6867 2881
250.7701 2767
250.8534 3011
250.9367 2911
251.0201 3010
251.1034 3110
251.1868 3186
251.2701 3058
251.3534 3091
251.4368 3300
251.5201 3340
251.6035 3408
251.6868 3496
251.7701 3500
251.8535 3623
251.9368 3619
252.0202 3694
252.1035 3652
252.1868 3721
252.2702 3865
252.3535 3966
252.4369 3907
252.5202 3908
252.6035 4137
252.6869 4226
252.7702 4071
252.8536 4210
252.9369 4269
253.0202 4235
253.1036 4159
253.1869 4456
253.2703 4438
253.3536 4523
253.4369 4551
253.5203 4506
253.6036 4534
253.6870 4289
253.7703 4629
253.8536 4676
253.9370 4674
254.0203 4683
254.1037 4742
254.1870 4673
254.2703 4457
254.3537 4541
254.4370 4595
254.5204 4775
254.6037 5057
254.6870 4745
254.7704 4699
254.8537 4690
254.9371 4783
255.0204 4664
255.1037 4768
255.1871 4701
255.2704 4886
255.3538 4676
255.4371 4566
255.5204 4613
255.6038 4894
255.6871 4788
255.7705 4733
255.8538 4707
255.9371 4712
256.0205 4556
256.1038 4565
256.1872 4585
256.2705 4537
256.3538 4495
256.4372 4741
256.5205 4495
256.6039 4543
256.6872 4341
256.7705 4445
256.8539 4485
256.9372 4371
257.0206 4366
257.1039 4370
257.1872 4225
257.2706 4182
257.3539 4293
257.4373 4087
257.5206 4047
257.6039 3948
257.6873 4004
257.7706 4058
257.8540 3929
257.9373 3900
258.0206 3807
258.1040 3881
258.1873 3759
258.2707 3865
258.3540 3774
258.4373 3636
258.5207 3684
258.6040 3555
258.6874 3406
258.7707 3429
258.8540 3346
258.9374 3214
259.0207 3353
259.1041 3105
259.1874 3174
259.2707 3156
259.3541 3160
259.4374 3150
259.5208 2850
259.6041 2740
259.6874 2759
259.7708 2789
259.8541 2736
259.9375 2571
260.0208 2550
260.1041 2349
260.1875 2362
260.2708 2225
260.3542 2246
260.4375 2286
260.5208 2172
260.6042 2184
260.6875 2017
260.7709 1976
260.8542 1935
260.9375 1858
261.0209 1699
261.1042 1773
261.1876 1658
261.2709 1545
261.3542 1490
261.4376 1418
261.5209 1304
261.6043 1326
261.6876 1246
261.7709 1120
261.8543 1220
261.9376 1083
262.0210 952
262.1043 991
262.1876 921
262.2710 906
262.3543 760
262.4377 723
262.5210 653
262.6043 613
262.6877 597
262.7710 540
262.8544 497
262.9377 426
263.0210 429
263.1044 403
263.1877 381
263.2711 399
263.3544 327
263.4377 336
263.5211 277
263.6044 263
263.6878 331
263.7711 295
263.8544 234
263.9378 270
264.0211 254
264.1045 297
264.1878 304
264.2711 323
264.3545 299
264.4378 326
264.5212 367
264.6045 425
264.6878 444
264.7712 484
264.8545 541
264.9379 614
265.0212 617
265.1045 668
265.1879 706
265.2712 779
265.3546 883
265.4379 1003
265.5212 1027
265.6046 1096
265.6879 1221
265.7713 1336
265.8546 1403
265.9379 1485
266.0213 1617
266.1046 1694
266.1880 1939
266.2713 1892
266.3546 2042
266.4380 2244
266.5213 2322
266.6047 2560
266.6880 2754
266.7713 2802
266.8547 2959
266.9380 3152
267.0214 3153
267.1047 3706
267.1880 3765
267.2714 3892
267.3547 4052
267.4381 4052
267.5214 4384
267.6047 4602
267.6881 4729
267.7714 4761
267.8548 5229
267.9381 5289
268.0214 5523
268.1048 5726
268.1881 6076
268.2715 6144
268.3548 6466
268.4381 6785
268.5215 6846
268.6048 6914
268.6882 7242
268.7715 7341
268.8548 7851
268.9382 8013
269.0215 8305
269.1049 8452
269.1882 8462
269.2715 8868
269.3549 8908
269.4382 9421
269.5216 9260
269.6049 9756
269.6882 9699
269.7716 10055
269.8549 10279
269.9383 10861
270.0216 10905
270.1049 10893
270.1883 11208
270.2716 11325
270.3550 12065
270.4383 12075
270.5216 12617
270.6050 12198
270.6883 12345
270.7717 12649
270.8550 12829
270.9383 13275
271.0217 13275
271.1050 13736
271.1884 13797
271.2717 13826
271.3550 14315
271.4384 14429
271.5217 14684
271.6051 14335
271.6884 14700
271.7717 14905
271.8551 15153
271.9384 15101
272.0218 15216
272.1051 15377
272.1884 15691
272.2718 15581
272.3551 15813
272.4385 15846
272.5218 15993
272.6051 16174
272.6885 16241
272.7718 16715
272.8552 16283
272.9385 16314
273.0218 16337
273.1052 16813
273.1885 16595
273.2719 16605
273.3552 16601
273.4385 17236
273.5219 16942
273.6052 17022
273.6886 17164
273.7719 17048
273.8552 16875
273.9386 16913
274.0219 16881
274.1053 16840
274.1886 17033
274.2719 17064
274.3553 16746
274.4386 16984
274.5220 16941
274.6053 16679
274.6886 16765
274.7720 16557
274.8553 16449
274.9387 16703
275.0220 15985
275.1053 16071
275.1887 16258
275.2720 16120
275.3554 15832
275.4387 15608
275.5220 15291
275.6054 15719
275.6887 15186
275.7721 15087
275.8554 14894
275.9387 14691
276.0221 14787
276.1054 14214
276.1888 14115
276.2721 14310
276.3554 13791
276.4388 13618
276.5221 13457
276.6055 13210
276.6888 12988
276.7721 12684
276.8555 12719
276.9388 12369
277.0222 12005
277.1055 11629
277.1888 11621
277.2722 11194
277.3555 11166
277.4389 11026
277.5222 10653
277.6055 10216
277.6889 10325
277.7722 9814
277.8556 9430
277.9389 9095
278.0222 8804
278.1056 8600
278.1889 8326
278.2723 8270
278.3556 7742
278.4389 7652
278.5223 7250
278.6056 7029
278.6890 6957
278.7723 6606
278.8556 6248
278.9390 5932
279.0223 5492
279.1057 5323
279.1890 5129
279.2723 4891
279.3557 4630
279.4390 4220
279.5224 4013
279.6057 3777
279.6890 3403
279.7724 3208
279.8557 2993
279.9391 2697
280.0224 2523
280.1057 2288
280.1891 2105
280.2724 2103
280.3558 1844
280.4391 1605
280.5224 1391
280.6058 1222
280.6891 1100
280.7725 1069
280.8558 910
280.9391 806
281.0225 686
281.1058 670
281.1892 606
281.2725 504
281.3558 465
281.4392 479
281.5225 465
281.6059 433
281.6892 475
281.7725 512
281.8559 635
281.9392 648
282.0226 841
282.1059 960
282.1892 1168
282.2726 1289
282.3559 1404
282.4393 1767
282.5226 1971
282.6059 2069
282.6893 2439
282.7726 2874
282.8560 3061
282.9393 3489
283.0226 3907
283.1060 4502
283.1893 4779
283.2727 5234
283.3560 5665
283.4393 6335
283.5227 6817
283.6060 7573
283.6894 7933
283.7727 8384
283.8560 9498
283.9394 10007
284.0227 10510
284.1061 11821
284.1894 12604
284.2727 13273
284.3561 14091
284.4394 15246
284.5228 15704
284.6061 16785
284.6894 17388
284.7728 18544
284.8561 19814
284.9395 20771
285.0228 21959
285.1061 22995
285.1895 23700
285.2728 25529
285.3562 26993
285.4395 27755
285.5228 29075
285.6062 30128
285.6895 31610
285.7729 32430
285.8562 34043
285.9395 35492
286.0229 36795
286.1062 38751
286.1896 39877
286.2729 41326
286.3562 42468
286.4396 44127
286.5229 45935
286.6063 47988
286.6896 49438
286.7729 51042
286.8563 52938
286.9396 54626
287.0230 57049
287.1063 58720
287.1896 60729
287.2730 62896
287.3563 64431
287.4397 66320
287.5230 68903
287.6063 70908
287.6897 73080
287.7730 75412
287.8564 77164
287.9397 80687
288.0230 82911
288.1064 85707
288.1897 86969
288.2731 90327
288.3564 91806
288.4397 96646
288.5231 98659
288.6064 100831
288.6898 104445
288.7731 106783
288.8564 110750
288.9398 113520
289.0231 116747
289.1065 118139
289.1898 122508
289.2731 124393
289.3565 128529
289.4398 130393
289.5232 134366
289.6065 137187
289.6898 140041
289.7732 143846
289.8565 147018
289.9399 149214
290.0232 153357
290.1065 155446
290.1899 161203
290.2732 163179
290.3566 167219
290.4399 170622
290.5232 173783
290.6066 177018
290.6899 181257
290.7733 183949
290.8566 188651
290.9399 191274
291.0233 194427
291.1066 197021
291.1900 202335
291.2733 207687
291.3566 210539
291.4400 212816
291.5233 218046
291.6067 221550
291.6900 226990
291.7733 229960
291.8567 233676
291.9400 236573
292.0234 241694
292.1067 243459
292.1900 251225
292.2734 252358
292.3567 256707
292.4401 260039
292.5234 265664
292.6067 268820
292.6901 272142
292.7734 275865
292.8568 280165
292.9401 283466
293.0234 289331
293.1068 294344
293.1901 297498
293.2735 300198
293.3568 305187
293.4401 307552
293.5235 313460
293.6068 314347
293.6902 321287
293.7735 321534
293.8568 328301
293.9402 331961
294.0235 337630
294.1069 338953
294.1902 343473
294.2735 346750
294.3569 350995
294.4402 355459
294.5236 361191
294.6069 365187
294.6902 367961
294.7736 373169
294.8569 377842
294.9403 379771
295.0236 383915
295.1069 388684
295.1903 392471
295.2736 394758
295.3570 398416
295.4403 401961
295.5236 405092
295.6070 407953
295.6903 412598
295.7737 417098
295.8570 417962
295.9403 422916
296.0237 425557
296.1070 430291
296.1904 430132
296.2737 434453
296.3570 434399
296.4404 440405
296.5237 443860
296.6071 445410
296.6904 448426
296.7737 454291
296.8571 453310
296.9404 457998
297.0238 459126
297.1071 461773
297.1904 464941
297.2738 470209
297.3571 469592
297.4405 470955
297.5238 470316
297.6071 474586
297.6905 474623
297.7738 482023
297.8572 478444
297.9405 483048
298.0238 482359
298.1072 488655
298.1905 485394
298.2739 487434
298.3572 490302
298.4405 493239
298.5239 494173
298.6072 496839
298.6906 498833
298.7739 496115
298.8572 500343
298.9406 500691
299.0239 500109
299.1073 499507
299.1906 499886
299.2739 505388
299.3573 500440
299.4406 500908
299.5240 499894
299.6073 500159
299.6906 502322
299.7740 501694
299.8573 500329
299.9407 502185
300.0240 500804
300.1073 497230
300.1907 499135
300.2740 498423
300.3574 502893
300.4407 501590
300.5240 503587
300.6074 500393
300.6907 502481
300.7741 499540
300.8574 497520
300.9407 497372
301.0241 492425
301.1074 496538
301.1908 495880
301.2741 490929
301.3574 490313
301.4408 490279
301.5241 485323
301.6075 483576
301.6908 487423
301.7741 481478
301.8575 478618
301.9408 476239
302.0242 477037
302.1075 473864
302.1908 476558
302.2742 468848
302.3575 470736
302.4409 467109
302.5242 466927
302.6075 463127
302.6909 462047
302.7742 459316
302.8576 457897
302.9409 453320
303.0242 453852
303.1076 447518
303.1909 447406
303.2743 443455
303.3576 439126
303.4409 437800
303.5243 437834
303.6076 430623
303.6910 430264
303.7743 430077
303.8576 425326
303.9410 417437
304.0243 417498
304.1077 409760
304.1910 406660
304.2743 397590
304.3577 397081
304.4410 393425
304.5244 390984
304.6077 386863
304.6910 381720
304.7744 378780
304.8577 376292
304.9411 371383
305.0244 368481
305.1077 360206
305.1911 359842
305.2744 353488
305.3578 351690
305.4411 347828
305.5244 343792
305.6078 338208
305.6911 337170
305.7745 329910
305.8578 326963
305.9411 324144
306.0245 318160
306.1078 312606
306.1912 309140
306.2745 306148
306.3578 301565
306.4412 294742
306.5245 290912
306.6079 286802
306.6912 282203
306.7745 278054
306.8579 272046
306.9412 270993
307.0246 265916
307.1079 263327
307.1912 258633
307.2746 254431
307.3579 249067
307.4413 247032
307.5246 241471
307.6079 239354
307.6913 233051
307.7746 227977
307.8580 224027
307.9413 222440
308.0246 215403
308.1080 211715
308.1913 207854
308.2747 204953
308.3580 196984
308.4413 195332
308.5247 192396
308.6080 189700
308.6914 183136
308.7747 181980
308.8580 177460
308.9414 174045
309.0247 170516
309.1081 166708
309.1914 161166
309.2747 160459
309.3581 157712
309.4414 154496
309.5248 148343
309.6081 145767
309.6914 142650
309.7748 139695
309.8581 136219
309.9415 133222
310.0248 128751
310.1081 126072
310.1915 123876
310.2748 121396
310.3582 115673
310.4415 113469
310.5248 111262
310.6082 108429
310.6915 104191
310.7749 102851
310.8582 100143
310.9415 97212
311.0249 94901
311.1082 91926
311.1916 88759
311.2749 86808
311.3582 84308
311.4416 81897
311.5249 79619
311.6083 77916
311.6916 75223
311.7749 73091
311.8583 70151
311.9416 68425
312.0250 66860
312.1083 64097
312.1916 62318
312.2750 59815
312.3583 57430
312.4417 55502
312.5250 54240
312.6083 52126
312.6917 50387
312.7750 48559
312.8584 47090
312.9417 44623
313.0250 43960
313.1084 41366
313.1917 39867
313.2751 38050
313.3584 37433
313.4417 35164
313.5251 34244
313.6084 32796
313.6918 31102
313.7751 30000
313.8584 28416
313.9418 27034
314.0251 26488
314.1085 25074
314.1918 23986
314.2751 22282
314.3585 21711
314.4418 20496
314.5252 19153
314.6085 17869
314.6918 17564
314.7752 16520
314.8585 15448
314.9419 14595
315.0252 13673
315.1085 13064
315.1919 11976
315.2752 11530
315.3586 10816
315.4419 10145
315.5252 9194
315.6086 8557
315.6919 8311
315.7753 7586
315.8586 6868
315.9419 6512
316.0253 5619
316.1086 5394
316.1920 5036
316.2753 4348
316.3586 3988
316.4420 3586
316.5253 3154
316.6087 2826
316.6920 2537
316.7753 2380
316.8587 2012
316.9420 1768
317.0254 1504
317.1087 1274
317.1920 1048
317.2754 868
317.3587 807
317.4421 677
317.5254 612
317.6087 448
317.6921 395
317.7754 332
317.8588 255
317.9421 215
318.0254 222
318.1088 220
318.1921 248
318.2755 236
318.3588 265
318.4421 343
318.5255 400
318.6088 478
318.6922 547
318.7755 620
318.8588 703
318.9422 797
319.0255 960
319.1089 1059
319.1922 1318
319.2755 1376
319.3589 1555
319.4422 1722
319.5256 2002
319.6089 2167
319.6922 2218
319.7756 2448
319.8589 2657
319.9423 2795
320.0256 3114
320.1089 3346
320.1923 3381
320.2756 3701
320.3590 3819
320.4423 4050
320.5256 4277
320.6090 4618
320.6923 4806
320.7757 5084
320.8590 5140
320.9423 5550
321.0257 5808
321.1090 6099
321.1924 6186
321.2757 6762
321.3590 6604
321.4424 7030
321.5257 7285
321.6091 7185
321.6924 7708
321.7757 7855
321.8591 8158
321.9424 8435
322.0258 8559
322.1091 9024
322.1924 8832
322.2758 9014
322.3591 9132
322.4425 9414
322.5258 9613
322.6091 10002
322.6925 9932
322.7758 10085
322.8592 10490
322.9425 10692
323.0258 10736
323.1092 10449
323.1925 10762
323.2759 10834
323.3592 11412
323.4425 11193
323.5259 11133
323.6092 11396
323.6926 11645
323.7759 11760
323.8592 11656
323.9426 11793
324.0259 11678
324.1093 12290
324.1926 12026
324.2759 11829
324.3593 11703
324.4426 12149
324.5260 12193
324.6093 12215
324.6926 12264
324.7760 12128
324.8593 12256
324.9427 12306
325.0260 12145
325.1093 12149
325.1927 12294
325.2760 12229
325.3594 12251
325.4427 11770
325.5260 11846
325.6094 12159
325.6927 11884
325.7761 11922
325.8594 11636
325.9427 11464
326.0261 11556
326.1094 11246
326.1928 11323
326.2761 11378
326.3594 11484
326.4428 11114
326.5261 10887
326.6095 11130
326.6928 10605
326.7761 10566
326.8595 10456
326.9428 10503
327.0262 10355
327.1095 10368
327.1928 9983
327.2762 9692
327.3595 9902
327.4429 9506
327.5262 9605
327.6095 8884
327.6929 8885
327.7762 8688
327.8596 8737
327.9429 8277
328.0262 8545
328.1096 8473
328.1929 8138
328.2763 7794
328.3596 7866
328.4429 7885
328.5263 7552
328.6096 7217
328.6930 7181
328.7763 6871
328.8596 6668
328.9430 6544
329.0263 6371
329.1097 6379
329.1930 6114
329.2763 5801
329.3597 5709
329.4430 5643
329.5264 5178
329.6097 5069
329.6930 4799
329.7764 4848
329.8597 4726
329.9431 4458
330.0264 4314
330.1097 4047
330.1931 4008
330.2764 3982
330.3598 3708
330.4431 3421
330.5264 3415
330.6098 3210
330.6931 3006
330.7765 3018
330.8598 2979
330.9431 2645
331.0265 2602
331.1098 2296
331.1932 2312
331.2765 2186
331.3598 2027
331.4432 1935
331.5265 1718
331.6099 1751
331.6932 1576
331.7765 1410
331.8599 1368
331.9432 1285
332.0266 1157
332.1099 1102
332.1932 1020
332.2766 991
332.3599 872
332.4433 794
332.5266 774
332.6099 713
332.6933 593
332.7766 532
332.8600 495
332.9433 467
333.0266 384
333.1100 329
333.1933 370
333.2767 277
333.3600 209
333.4433 227
333.5267 199
333.6100 133
333.6934 155
333.7767 151
333.8600 114
333.9434 115
334.0267 110
334.1101 125
334.1934 88
334.2767 115
334.3601 120
334.4434 153
334.5268 164
334.6101 151
334.6934 159
334.7768 252
334.8601 244
334.9435 245
335.0268 293
335.1101 342
335.1935 401
335.2768 404
335.3602 424
335.4435 571
335.5268 538
335.6102 602
335.6935 653
335.7769 811
335.8602 743
335.9435 824
336.0269 820
336.1102 940
336.1936 1023
336.2769 1142
336.3602 1190
336.4436 1195
336.5269 1330
336.6103 1402
336.6936 1478
336.7769 1642
336.8603 1857
336.9436 1682
337.0270 1876
337.1103 1860
337.1936 1934
337.2770 2079
337.3603 2262
337.4437 2319
337.5270 2409
337.6103 2585
337.6937 2632
337.7770 2621
337.8604 2786
337.9437 2918
338.0270 3008
338.1104 3050
338.1937 3232
338.2771 3299
338.3604 3417
338.4437 3661
338.5271 3732
338.6104 3730
338.6938 3922
338.7771 4059
338.8604 4187
338.9438 4094
339.0271 4420
339.1105 4705
339.1938 4578
339.2771 4646
339.3605 4883
339.4438 4788
339.5272 4986
339.6105 5155
339.6938 5327
339.7772 5531
339.8605 5618
339.9439 5710
340.0272 5800
340.1105 5837
340.1939 5980
340.2772 6106
340.3606 6319
340.4439 6359
340.5272 6218
340.6106 6368
340.6939 6617
340.7773 6565
340.8606 6716
340.9439 6806
341.0273 6789
341.1106 6936
341.1940 6823
341.2773 6994
341.3606 7120
341.4440 7485
341.5273 7346
341.6107 7302
341.6940 7305
341.7773 7348
341.8607 7763
341.9440 7444
342.0274 7731
342.1107 7661
342.1940 7636
342.2774 7636
342.3607 7622
342.4441 7601
342.5274 7804
342.6107 7684
342.6941 7805
342.7774 7860
342.8608 7838
342.9441 7808
343.0274 7848
343.1108 7600
343.1941 7915
343.2775 7707
343.3608 7907
343.4441 7584
343.5275 7765
343.6108 7793
343.6942 7633
343.7775 7740
343.8608 7601
343.9442 7472
344.0275 7497
344.1109 7524
344.1942 7533
344.2775 7267
344.3609 7634
344.4442 7356
344.5276 7266
344.6109 7408
344.6942 7189
344.7776 7101
344.8609 7077
344.9443 6896
345.0276 6609
345.1109 6982
345.1943 6577
345.2776 6597
345.3610 6756
345.4443 6656
345.5276 6525
345.6110 6345
345.6943 6272
345.7777 6010
345.8610 5957
345.9443 5933
346.0277 5811
346.1110 5719
346.1944 5606
346.2777 5549
346.3610 5443
346.4444 5400
346.5277 5115
346.6111 5097
346.6944 4738
346.7777 4864
346.8611 4830
346.9444 4618
347.0278 4342
347.1111 4439
347.1944 4225
347.2778 4257
347.3611 4071
347.4445 4070
347.5278 3885
347.6111 3837
347.6945 3680
347.7778 3626
347.8612 3419
347.9445 3330
348.0278 3175
348.1112 3076
348.1945 3168
348.2779 3076
348.3612 2807
348.4445 2679
348.5279 2571
348.6112 2635
348.6946 2428
348.7779 2431
348.8612 2173
348.9446 2208
349.0279 2167
349.1113 1968
349.1946 1938
349.2779 1774
349.3613 1757
349.4446 1756
349.5280 1573
349.6113 1571
349.6946 1437
349.7780 1403
349.8613 1391
349.9447 1331
350.0280 1180
350.1113 1136
350.1947 1178
350.2780 1077
350.3614 1010
350.4447 915
350.5280 967
350.6114 836
350.6947 821
350.7781 794
350.8614 727
350.9447 625
351.0281 673
351.1114 566
351.1948 596
351.2781 537
351.3614 575
351.4448 493
351.5281 514
351.6115 507
351.6948 417
351.7781 406
351.8615 405
351.9448 415
352.0282 367
352.1115 357
352.1948 314
352.2782 324
352.3615 331
352.4449 337
352.5282 283
352.6115 321
352.6949 351
352.7782 279
352.8616 348
352.9449 345
353.0282 317
353.1116 387
353.1949 382
353.2783 345
353.3616 425
353.4449 399
353.5283 425
353.6116 420
353.6950 416
353.7783 517
353.8616 475
353.9450 490
354.0283 537
354.1117 592
354.1950 539
354.2783 626
354.3617 638
354.4450 702
354.5284 772
354.6117 830
354.6950 852
354.7784 820
354.8617 837
354.9451 920
355.0284 1004
355.1117 948
355.1951 1018
355.2784 1067
355.3618 1110
355.4451 1162
355.5284 1146
355.6118 1290
355.6951 1329
355.7785 1305
355.8618 1417
355.9451 1510
356.0285 1546
356.1118 1420
356.1952 1639
356.2785 1606
356.3618 1612
356.4452 1731
356.5285 1871
356.6119 1780
356.6952 1955
356.7785 1887
356.8619 1988
356.9452 2078
357.0286 2095
357.1119 2112
357.1952 2201
357.2786 2116
357.3619 2227
357.4453 2354
357.5286 2309
357.6119 2470
357.6953 2338
357.7786 2520
357.8620 2523
357.9453 2533
358.0286 2695
358.1120 2573
358.1953 2734
358.2787 2736
358.3620 2837
358.4453 2852
358.5287 2797
358.6120 2791
358.6954 2778
358.7787 2803
358.8620 3081
358.9454 2940
359.0287 3143
359.1121 3107
359.1954 2878
359.2787 3208
359.3621 3118
359.4454 3261
359.5288 3061
359.6121 3039
359.6954 3136
359.7788 3228
359.8621 3164
359.9455 3147
360.0288 3332
360.1121 3187
360.1955 3252
360.2788 3198
360.3622 3177
360.4455 3197
360.5288 3264
360.6122 3182
360.6955 3139
360.7789 3316
360.8622 3086
360.9455 3095
361.0289 3124
361.1122 3085
361.1956 2987
361.2789 2968
361.3622 2983
361.4456 2892
361.5289 3025
361.6123 2891
361.6956 2926
361.7789 2994
361.8623 2745
361.9456 2874
362.0290 2878
362.1123 2708
362.1956 2618
362.2790 2678
362.3623 2583
362.4457 2639
362.5290 2501
362.6123 2471
362.6957 2507
362.7790 2487
362.8624 2388
362.9457 2407
363.0290 2341
363.1124 2309
363.1957 2231
363.2791 2263
363.3624 2111
363.4457 2193
363.5291 2022
363.6124 2039
363.6958 2013
363.7791 1916
363.8624 1995
363.9458 1949
364.0291 1790
364.1125 1647
364.1958 1690
364.2791 1747
364.3625 1700
364.4458 1632
364.5292 1629
364.6125 1596
364.6958 1454
364.7792 1557
364.8625 1498
364.9459 1319
365.0292 1343
365.1125 1311
365.1959 1250
365.2792 1290
365.3626 1170
365.4459 1174
365.5292 1179
365.6126 1186
365.6959 1068
365.7793 1141
365.8626 971
365.9459 1000
366.0293 945
366.1126 948
366.1960 922
366.2793 984
366.3626 854
366.4460 890
366.5293 783
366.6127 779
366.6960 728
366.7793 656
366.8627 740
366.9460 635
367.0294 699
367.1127 606
367.1960 629
367.2794 610
367.3627 571
367.4461 481
367.5294 502
367.6127 505
367.6961 433
367.7794 434
367.8628 403
367.9461 393
368.0294 360
368.1128 339
368.1961 345
368.2795 274
368.3628 264
368.4461 259
368.5295 252
368.6128 198
368.6962 265
368.7795 196
368.8628 200
368.9462 163
369.0295 117
369.1129 104
369.1962 95
369.2795 92
369.3629 84
369.4462 53
369.5296 76
369.6129 65
369.6962 67
369.7796 29
369.8629 33
369.9463 71
370.0296 45
370.1129 56
370.1963 33
370.2796 37
370.3630 40
370.4463 74
370.5296 46
370.6130 35
370.6963 22
370.7797 52
370.8630 45
370.9463 38
371.0297 68
371.1130 65
371.1964 87
371.2797 106
371.3630 90
371.4464 114
371.5297 94
371.6131 166
371.6964 179
371.7797 167
371.8631 202
371.9464 193
372.0298 199
372.1131 270
372.1964 293
372.2798 293
372.3631 329
372.4465 329
372.5298 350
372.6131 358
372.6965 378
372.7798 407
372.8632 398
372.9465 506
373.0298 464
373.1132 471
373.1965 517
373.2799 575
373.3632 518
373.4465 605
373.5299 639
373.6132 671
373.6966 630
373.7799 627
373.8632 700
373.9466 710
374.0299 725
374.1133 798
374.1966 763
374.2799 813
374.3633 892
374.4466 784
374.5300 797
374.6133 856
374.6966 863
374.7800 924
374.8633 918
374.9467 859
375.0300 914
375.1133 965
375.1967 899
375.2800 968
375.3634 1017
375.4467 957
375.5300 969
375.6134 980
375.6967 1097
375.7801 1147
375.8634 1112
375.9467 1091
376.0301 1160
376.1134 1063
376.1968 1110
376.2801 1106
376.3634 1193
376.4468 1183
376.5301 1166
376.6135 1216
376.6968 1189
376.7801 1101
376.8635 1174
376.9468 1239
377.0302 1124
377.1135 1162
377.1968 1209
377.2802 1210
377.3635 1180
377.4469 1161
377.5302 1326
377.6135 1287
377.6969 1241
377.7802 1367
377.8636 1375
377.9469 1200
378.0302 1289
378.1136 1331
378.1969 1333
378.2803 1425
378.3636 1443
378.4469 1459
378.5303 1453
378.6136 1432
378.6970 1467
378.7803 1420
378.8636 1441
378.9470 1402
379.0303 1558
379.1137 1440
379.1970 1498
379.2803 1530
379.3637 1505
379.4470 1520
379.5304 1550
379.6137 1465
379.6970 1495
379.7804 1652
379.8637 1560
379.9471 1566
380.0304 1553
380.1137 1524
380.1971 1549
380.2804 1534
380.3638 1529
380.4471 1585
380.5304 1573
380.6138 1552
380.6971 1503
380.7805 1434
380.8638 1441
380.9471 1432
381.0305 1472
381.1138 1387
381.1972 1450
381.2805 1460
381.3638 1437
381.4472 1331
381.5305 1375
381.6139 1346
381.6972 1251
381.7805 1256
381.8639 1302
381.9472 1365
382.0306 1259
382.1139 1232
382.1972 1101
382.2806 1155
382.3639 1075
382.4473 1150
382.5306 1079
382.6139 1055
382.6973 955
382.7806 977
382.8640 999
382.9473 952
383.0306 939
383.1140 875
383.1973 833
383.2807 839
383.3640 828
383.4473 722
383.5307 754
383.6140 750
383.6974 688
383.7807 688
383.8640 720
383.9474 671
384.0307 603
384.1141 631
384.1974 573
384.2807 573
384.3641 570
384.4474 535
384.5308 614
384.6141 509
384.6974 510
384.7808 512
384.8641 522
384.9475 446
385.0308 480
385.1141 408
385.1975 372
385.2808 391
385.3642 387
385.4475 332
385.5308 346
385.6142 357
385.6975 338
385.7809 305
385.8642 299
385.9475 281
386.0309 320
386.1142 300
386.1976 289
386.2809 265
386.3642 243
386.4476 238
386.5309 240
386.6143 226
386.6976 172
386.7809 229
386.8643 174
386.9476 188
387.0310 213
387.1143 185
387.1976 187
387.2810 163
387.3643 179
387.4477 139
387.5310 177
387.6143 154
387.6977 139
387.7810 191
387.8644 175
387.9477 125
388.0310 152
388.1144 137
388.1977 188
388.2811 147
388.3644 182
388.4477 173
388.5311 148
388.6144 177
388.6978 151
388.7811 215
388.8644 184
388.9478 200
389.0311 239
389.1145 204
389.1978 246
389.2811 225
389.3645 276
389.4478 232
389.5312 264
389.6145 266
389.6978 270
389.7812 292
389.8645 269
389.9479 333
390.0312 369
390.1145 346
390.1979 413
390.2812 388
390.3646 401
390.4479 433
390.5312 463
390.6146 460
390.6979 460
390.7813 529
390.8646 522
390.9479 578
391.0313 551
391.1146 561
391.1980 490
391.2813 562
391.3646 539
391.4480 544
391.5313 593
391.6147 658
391.6980 610
391.7813 556
391.8647 577
391.9480 643
392.0314 633
392.1147 586
392.1980 653
392.2814 654
392.3647 677
392.4481 654
392.5314 671
392.6147 649
392.6981 642
392.7814 724
392.8648 667
392.9481 673
393.0314 717
393.1148 722
393.1981 706
393.2815 741
393.3648 720
393.4481 832
393.5315 767
393.6148 739
393.6982 808
393.7815 780
393.8648 842
393.9482 824
394.0315 830
394.1149 873
394.1982 800
394.2815 883
394.3649 859
394.4482 887
394.5316 960
394.6149 902
394.6982 1002
394.7816 959
394.8649 989
394.9483 1073
395.0316 1100
395.1149 1060
395.1983 1096
395.2816 1125
395.3650 1174
395.4483 1166
395.5316 1190
395.6150 1271
395.6983 1269
395.7817 1198
395.8650 1342
395.9483 1328
396.0317 1387
396.1150 1433
396.1984 1324
396.2817 1373
396.3650 1362
396.4484 1316
396.5317 1409
396.6151 1466
396.6984 1403
396.7817 1378
396.8651 1405
396.9484 1415
397.0318 1412
397.1151 1416
397.1984 1362
397.2818 1392
397.3651 1436
397.4485 1472
397.5318 1333
397.6151 1384
397.6985 1450
397.7818 1468
397.8652 1325
397.9485 1357
398.0318 1319
398.1152 1340
398.1985 1249
398.2819 1316
398.3652 1303
398.4485 1221
398.5319 1184
398.6152 1013
398.6986 1081
398.7819 1056
398.8652 1029
398.9486 1001
399.0319 1040
399.1153 1001
399.1986 1027
399.2819 819
399.3653 933
399.4486 803
399.5320 836
399.6153 774
399.6986 755
399.7820 695
399.8653 683
399.9487 640
400.0320 630
400.1153 722
400.1987 689
400.2820 594
400.3654 565
400.4487 531
400.5320 498
400.6154 469
400.6987 473
400.7821 480
400.8654 444
400.9487 389
401.0321 446
401.1154 448
401.1988 428
401.2821 371
401.3654 364
401.4488 360
401.5321 362
401.6155 366
401.6988 372
401.7821 340
401.8655 310
401.9488 306
402.0322 268
402.1155 258
402.1988 235
402.2822 265
402.3655 267
402.4489 232
402.5322 263
402.6155 198
402.6989 219
402.7822 189
402.8656 155
402.9489 192
403.0322 190
403.1156 159
403.1989 161
403.2823 167
403.3656 143
403.4489 165
403.5323 109
403.6156 168
403.6990 162
403.7823 120
403.8656 110
403.9490 114
404.0323 131
404.1157 122
404.1990 96
404.2823 102
404.3657 118
404.4490 66
404.5324 99
404.6157 107
404.6990 86
404.7824 114
404.8657 126
404.9491 113
405.0324 83
405.1157 84
405.1991 98
405.2824 87
405.3658 95
405.4491 107
405.5324 112
405.6158 112
405.6991 120
405.7825 131
405.8658 110
405.9491 122
406.0325 160
406.1158 143
406.1992 139
406.2825 142
406.3658 206
406.4492 149
406.5325 185
406.6159 160
406.6992 181
406.7825 203
406.8659 156
406.9492 208
407.0326 203
407.1159 232
407.1992 222
407.2826 210
407.3659 223
407.4493 271
407.5326 271
407.6159 231
407.6993 274
407.7826 268
407.8660 282
407.9493 313
408.0326 325
408.1160 291
408.1993 311
408.2827 336
408.3660 313
408.4493 375
408.5327 361
408.6160 428
408.6994 407
408.7827 434
408.8660 420
408.9494 470
409.0327 453
409.1161 455
409.1994 437
409.2827 457
409.3661 476
409.4494 487
409.5328 520
409.6161 556
409.6994 569
409.7828 538
409.8661 561
409.9495 638
410.0328 618
410.1161 665
410.1995 648
410.2828 578
410.3662 643
410.4495 695
410.5328 675
410.6162 649
410.6995 649
410.7829 668
410.8662 672
410.9495 744
411.0329 727
411.1162 687
411.1996 637
411.2829 691
411.3662 670
411.4496 702
411.5329 663
411.6163 623
411.6996 703
411.7829 606
411.8663 678
411.9496 688
412.0330 578
412.1163 679
412.1996 629
412.2830 681
412.3663 624
412.4497 631
412.5330 597
412.6163 645
412.6997 537
412.7830 594
412.8664 568
412.9497 602
413.0330 654
413.1164 619
413.1997 597
413.2831 521
413.3664 545
413.4497 583
413.5331 563
413.6164 584
413.6998 551
413.7831 542
413.8664 587
413.9498 517
414.0331 541
414.1165 576
414.1998 568
414.2831 538
414.3665 522
414.4498 556
414.5332 541
414.6165 538
414.6998 534
414.7832 584
414.8665 533
414.9499 549
415.0332 634
415.1165 591
415.1999 528
415.2832 588
415.3666 588
415.4499 608
415.5332 593
415.6166 557
415.6999 581
415.7833 594
415.8666 559
415.9499 590
416.0333 535
416.1166 603
416.2000 525
416.2833 557
416.3666 529
416.4500 489
416.5333 552
416.6167 519
416.7000 504
416.7833 512
416.8667 522
416.9500 460
417.0334 519
417.1167 531
417.2000 480
417.2834 443
417.3667 467
417.4501 439
417.5334 440
417.6167 408
417.7001 354
417.7834 422
417.8668 362
417.9501 411
418.0334 339
418.1168 345
418.2001 381
418.2835 282
418.3668 322
418.4501 297
418.5335 369
418.6168 286
418.7002 336
418.7835 257
418.8668 261
418.9502 296
419.0335 250
419.1169 248
419.2002 269
419.2835 261
419.3669 212
419.4502 259
419.5336 228
419.6169 220
419.7002 187
419.7836 193
419.8669 205
419.9503 216
420.0336 227
420.1169 226
420.2003 215
420.2836 213
420.3670 237
420.4503 203
420.5336 211
420.6170 201
420.7003 202
420.7837 190
420.8670 157
420.9503 171
421.0337 202
421.1170 178
421.2004 179
421.2837 144
421.3670 170
421.4504 140
421.5337 116
421.6171 113
421.7004 125
421.7837 92
421.8671 142
421.9504 136
422.0338 107
422.1171 98
422.2004 122
422.2838 82
422.3671 81
422.4505 89
422.5338 75
422.6171 66
422.7005 75
422.7838 55
422.8672 40
422.9505 45
423.0338 72
423.1172 44
423.2005 52
423.2839 44
423.3672 61
423.4505 61
423.5339 50
423.6172 67
423.7006 80
423.7839 63
423.8672 98
423.9506 77
424.0339 99
424.1173 88
424.2006 69
424.2839 108
424.3673 90
424.4506 85
424.5340 86
424.6173 107
424.7006 99
424.7840 149
424.8673 105
424.9507 105
425.0340 115
425.1173 127
425.2007 119
425.2840 95
425.3674 144
425.4507 158
425.5340 144
425.6174 127
425.7007 107
425.7841 184
425.8674 164
425.9507 153
426.0341 183
426.1174 189
426.2008 184
426.2841 212
426.3674 181
426.4508 206
426.5341 198
426.6175 218
426.7008 238
426.7841 247
426.8675 253
426.9508 283
427.0342 236
427.1175 353
427.2008 261
427.2842 285
427.3675 300
427.4509 300
427.5342 350
427.6175 284
427.7009 302
427.7842 314
427.8676 307
427.9509 354
428.0342 361
428.1176 414
428.2009 352
428.2843 382
428.3676 363
428.4509 426
428.5343 392
428.6176 382
428.7010 394
428.7843 403
428.8676 390
428.9510 405
429.0343 398
429.1177 358
429.2010 433
429.2843 390
429.3677 404
429.4510 397
429.5344 405
429.6177 460
429.7010 382
429.7844 400
429.8677 440
429.9511 403
430.0344 430
430.1177 430
430.2011 397
430.2844 397
430.3678 397
430.4511 386
430.5344 401
430.6178 356
430.7011 430
430.7845 335
430.8678 392
430.9511 391
431.0345 387
431.1178 445
431.2012 434
431.2845 414
431.3678 416
431.4512 462
431.5345 383
431.6179 453
431.7012 462
431.7845 441
431.8679 383
431.9512 431
432.0346 457
432.1179 419
432.2012 461
432.2846 443
432.3679 439
432.4513 422
432.5346 444
432.6179 403
432.7013 503
432.7846 436
432.8680 450
432.9513 472
433.0346 433
433.1180 449
433.2013 449
433.2847 395
433.3680 399
433.4513 535
433.5347 341
433.6180 377
433.7014 390
433.7847 350
433.8680 383
433.9514 381
434.0347 357
434.1181 354
434.2014 357
434.2847 370
434.3681 349
434.4514 321
434.5348 397
434.6181 348
434.7014 323
434.7848 353
434.8681 347
434.9515 343
435.0348 323
435.1181 311
435.2015 304
435.2848 294
435.3682 345
435.4515 283
435.5348 284
435.6182 276
435.7015 309
435.7849 261
435.8682 306
435.9515 281
436.0349 287
436.1182 240
436.2016 257
436.2849 232
436.3682 251
436.4516 219
436.5349 212
436.6183 226
436.7016 219
436.7849 197
436.8683 225
436.9516 165
437.0350 173
437.1183 147
437.2016 171
437.2850 149
437.3683 133
437.4517 141
437.5350 125
437.6183 122
437.7017 133
437.7850 86
437.8684 100
437.9517 96
438.0350 82
438.1184 86
438.2017 110
438.2851 58
438.3684 59
438.4517 80
438.5351 66
438.6184 69
438.7018 56
438.7851 76
438.8684 50
438.9518 37
439.0351 46
439.1185 44
439.2018 51
439.2851 41
439.3685 47
439.4518 33
439.5352 31
439.6185 40
439.7018 41
439.7852 39
439.8685 42
439.9519 38
440.0352 21
440.1185 44
440.2019 48
440.2852 24
440.3686 27
440.4519 25
440.5352 53
440.6186 28
440.7019 26
440.7853 55
440.8686 18
440.9519 9
441.0353 23
441.1186 24
441.2020 30
441.2853 28
441.3686 23
441.4520 10
441.5353 57
441.6187 28
441.7020 35
441.7853 34
441.8687 15
441.9520 40
442.0354 49
442.1187 35
442.2020 40
442.2854 36
442.3687 38
442.4521 47
442.5354 50
442.6187 34
442.7021 56
442.7854 45
442.8688 64
442.9521 54
443.0354 53
443.1188 79
443.2021 49
443.2855 86
443.3688 60
443.4521 61
443.5355 79
443.6188 64
443.7022 97
443.7855 82
443.8688 99
443.9522 106
444.0355 105
444.1189 108
444.2022 99
444.2855 119
444.3689 116
444.4522 100
444.5356 121
444.6189 92
444.7022 115
444.7856 130
444.8689 130
444.9523 135
445.0356 124
445.1189 134
445.2023 172
445.2856 143
445.3690 104
445.4523 150
445.5356 171
445.6190 133
445.7023 167
445.7857 163
445.8690 186
445.9523 185
446.0357 197
446.1190 198
446.2024 205
446.2857 177
446.3690 228
446.4524 211
446.5357 239
446.6191 232
446.7024 233
446.7857 292
446.8691 275
446.9524 233
447.0358 252
447.1191 290
447.2024 282
447.2858 325
447.3691 263
447.4525 286
447.5358 306
447.6191 316
447.7025 274
447.7858 267
447.8692 272
447.9525 268
448.0358 268
448.1192 338
448.2025 260
448.2859 331
448.3692 258
448.4525 300
448.5359 282
448.6192 274
448.7026 290
448.7859 255
448.8692 283
448.9526 228
449.0359 260
449.1193 272
449.2026 246
449.2859 286
449.3693 292
449.4526 266
449.5360 268
449.6193 303
449.7026 234
449.7860 264
449.8693 266
449.9527 265
450.0360 294
450.1193 259
450.2027 340
450.2860 305
450.3694 263
450.4527 272
450.5360 249
450.6194 253
450.7027 283
450.7861 270
450.8694 258
450.9527 221
451.0361 253
451.1194 246
451.2028 268
451.2861 284
451.3694 287
451.4528 272
451.5361 238
451.6195 294
451.7028 253
451.7861 250
451.8695 223
451.9528 246
452.0362 265
452.1195 252
452.2028 231
452.2862 256
452.3695 213
452.4529 254
452.5362 227
452.6195 259
452.7029 228
452.7862 207
452.8696 251
452.9529 209
453.0362 248
453.1196 179
453.2029 194
453.2863 234
453.3696 233
453.4529 237
453.5363 246
453.6196 149
453.7030 198
453.7863 217
453.8696 169
453.9530 164
454.0363 218
454.1197 194
454.2030 183
454.2863 167
454.3697 150
454.4530 176
454.5364 164
454.6197 138
454.7030 177
454.7864 143
454.8697 169
454.9531 140
455.0364 146
455.1197 160
455.2031 136
455.2864 169
455.3698 136
455.4531 111
455.5364 176
455.6198 142
455.7031 128
455.7865 123
455.8698 123
455.9531 90
456.0365 134
456.1198 107
456.2032 111
456.2865 113
456.3698 99
456.4532 121
456.5365 131
456.6199 92
456.7032 113
456.7865 103
456.8699 88
456.9532 116
457.0366 90
457.1199 77
457.2032 92
457.2866 86
457.3699 59
457.4533 64
457.5366 64
457.6199 77
457.7033 73
457.7866 53
457.8700 76
457.9533 62
458.0366 70
458.1200 83
458.2033 44
458.2867 53
458.3700 68
458.4533 52
458.5367 43
458.6200 35
458.7034 35
458.7867 49
458.8700 43
458.9534 64
459.0367 48
459.1201 36
459.2034 36
459.2867 40
459.3701 52
459.4534 62
459.5368 41
459.6201 46
459.7034 43
459.7868 59
459.8701 35
459.9535 39
460.0368 44
460.1201 58
460.2035 49
460.2868 78
460.3702 43
460.4535 46
460.5368 44
460.6202 61
460.7035 59
460.7869 49
460.8702 44
460.9535 53
461.0369 71
461.1202 55
461.2036 71
461.2869 59
461.3702 75
461.4536 61
461.5369 62
461.6203 92
461.7036 55
461.7869 94
461.8703 45
461.9536 50
462.0370 61
462.1203 39
462.2036 36
462.2870 48
462.3703 58
462.4537 72
462.5370 68
462.6203 61
462.7037 71
462.7870 77
462.8704 72
462.9537 43
463.0370 88
463.1204 75
463.2037 80
463.2871 74
463.3704 113
463.4537 93
463.5371 98
463.6204 118
463.7038 112
463.7871 109
463.8704 96
463.9538 155
464.0371 144
464.1205 128
464.2038 145
464.2871 143
464.3705 138
464.4538 146
464.5372 124
464.6205 148
464.7038 147
464.7872 129
464.8705 153
464.9539 143
465.0372 125
465.1205 138
465.2039 118
465.2872 154
465.3706 141
465.4539 147
465.5372 128
465.6206 144
465.7039 164
465.7873 136
465.8706 152
465.9539 134
466.0373 155
466.1206 156
466.2040 169
466.2873 145
466.3706 139
466.4540 126
466.5373 106
466.6207 170
466.7040 144
466.7873 164
466.8707 169
466.9540 168
467.0374 171
467.1207 164
467.2040 132
467.2874 171
467.3707 204
467.4541 169
467.5374 162
467.6207 191
467.7041 167
467.7874 158
467.8708 212
467.9541 182
468.0374 202
468.1208 207
468.2041 183
468.2875 197
468.3708 215
468.4541 183
468.5375 150
468.6208 173
468.7042 147
468.7875 149
468.8708 181
468.9542 144
469.0375 174
469.1209 122
469.2042 165
469.2875 154
469.3709 173
469.4542 146
469.5376 109
469.6209 159
469.7042 94
469.7876 156
469.8709 104
469.9543 116
470.0376 119
470.1209 134
470.2043 108
470.2876 82
470.3710 125
470.4543 87
470.5376 89
470.6210 108
470.7043 94
470.7877 87
470.8710 82
470.9543 114
471.0377 100
471.1210 90
471.2044 75
471.2877 96
471.3710 115
471.4544 90
471.5377 80
471.6211 105
471.7044 75
471.7877 99
471.8711 74
471.9544 90
472.0378 73
472.1211 83
472.2044 76
472.2878 75
472.3711 66
472.4545 114
472.5378 60
472.6211 83
472.7045 76
472.7878 77
472.8712 109
472.9545 53
473.0378 76
473.1212 66
473.2045 81
473.2879 58
473.3712 62
473.4545 57
473.5379 51
473.6212 80
473.7046 75
473.7879 68
473.8712 49
473.9546 72
474.0379 54
474.1213 59
474.2046 28
474.2879 60
474.3713 37
474.4546 43
474.5380 64
474.6213 54
474.7046 46
474.7880 42
474.8713 32
474.9547 60
475.0380 41
475.1213 40
475.2047 36
475.2880 41
475.3714 45
475.4547 45
475.5380 46
475.6214 50
475.7047 38
475.7881 53
475.8714 37
475.9547 49
476.0381 64
476.1214 30
476.2048 46
476.2881 42
476.3714 37
476.4548 47
476.5381 63
476.6215 30
476.7048 42
476.7881 48
476.8715 38
476.9548 38
477.0382 75
477.1215 53
477.2048 60
477.2882 61
477.3715 61
477.4549 50
477.5382 49
477.6215 42
477.7049 51
477.7882 58
477.8716 53
477.9549 61
478.0382 65
478.1216 82
478.2049 60
478.2883 73
478.3716 70
478.4549 73
478.5383 76
478.6216 62
478.7050 91
478.7883 74
478.8716 110
478.9550 94
479.0383 87
479.1217 106
479.2050 108
479.2883 104
479.3717 102
479.4550 98
479.5384 120
479.6217 75
479.7050 89
479.7884 81
479.8717 118
479.9551 85
480.0384 109
480.1217 96
480.2051 98
480.2884 112
480.3718 110
480.4551 100
480.5384 123
480.6218 95
480.7051 84
480.7885 74
480.8718 93
480.9551 93
481.0385 100
481.1218 141
481.2052 126
481.2885 100
481.3718 117
481.4552 114
481.5385 123
481.6219 133
481.7052 111
481.7885 126
481.8719 136
481.9552 113
482.0386 145
482.1219 155
482.2052 179
482.2886 170
482.3719 173
482.4553 166
482.5386 174
482.6219 167
482.7053 183
482.7886 155
482.8720 161
482.9553 173
483.0386 204
483.1220 164
483.2053 202
483.2887 199
483.3720 184
483.4553 194
483.5387 187
483.6220 198
483.7054 184
483.7887 184
483.8720 171
483.9554 197
484.0387 181
484.1221 183
484.2054 182
484.2887 192
484.3721 186
484.4554 229
484.5388 187
484.6221 181
484.7054 169
484.7888 187
484.8721 206
484.9555 145
485.0388 197
485.1221 171
485.2055 190
485.2888 203
485.3722 193
485.4555 229
485.5388 213
485.6222 229
485.7055 208
485.7889 227
485.8722 236
485.9555 225
486.0389 222
486.1222 244
486.2056 248
486.2889 220
486.3722 252
486.4556 238
486.5389 218
486.6223 226
486.7056 211
486.7889 235
486.8723 201
486.9556 209
487.0390 199
487.1223 188
487.2056 203
487.2890 199
487.3723 211
487.4557 187
487.5390 187
487.6223 186
487.7057 178
487.7890 199
487.8724 148
487.9557 165
488.0390 203
488.1224 145
488.2057 199
488.2891 189
488.3724 171
488.4557 155
488.5391 150
488.6224 196
488.7058 159
488.7891 159
488.8724 165
488.9558 184
489.0391 162
489.1225 181
489.2058 186
489.2891 225
489.3725 170
489.4558 173
489.5392 189
489.6225 179
489.7058 169
489.7892 173
489.8725 208
489.9559 217
490.0392 180
490.1225 155
490.2059 203
490.2892 184
490.3726 154
490.4559 158
490.5392 154
490.6226 164
490.7059 177
490.7893 125
490.8726 150
490.9559 143
491.0393 141
491.1226 138
491.2060 116
491.2893 141
491.3726 154
491.4560 133
491.5393 99
491.6227 107
491.7060 112
491.7893 99
491.8727 94
491.9560 115
492.0394 113
492.1227 92
492.2060 72
492.2894 121
492.3727 86
492.4561 103
492.5394 168
492.6227 83
492.7061 88
492.7894 108
492.8728 110
492.9561 94
493.0394 113
493.1228 99
493.2061 108
493.2895 99
493.3728 110
493.4561 92
493.5395 97
493.6228 96
493.7062 87
493.7895 74
493.8728 66
493.9562 63
494.0395 66
494.1229 58
494.2062 70
494.2895 67
494.3729 65
494.4562 47
494.5396 62
494.6229 40
494.7062 43
494.7896 45
494.8729 47
494.9563 34
495.0396 46
495.1229 40
495.2063 46
495.2896 35
495.3730 51
495.4563 40
495.5396 48
495.6230 72
495.7063 59
495.7897 28
495.8730 41
495.9563 61
496.0397 33
496.1230 58
496.2064 65
496.2897 60
496.3730 48
496.4564 38
496.5397 48
496.6231 32
496.7064 43
496.7897 58
496.8731 27
496.9564 42
497.0398 39
497.1231 43
497.2064 38
497.2898 33
497.3731 42
497.4565 28
497.5398 39
497.6231 41
497.7065 41
497.7898 24
497.8732 40
497.9565 58
498.0398 50
498.1232 42
498.2065 47
498.2899 44
498.3732 31
498.4565 36
498.5399 47
498.6232 57
498.7066 44
498.7899 48
498.8732 46
498.9566 42
499.0399 54
499.1233 30
499.2066 78
499.2899 56
499.3733 42
499.4566 57
499.5400 80
499.6233 91
499.7066 80
499.7900 48
499.8733 52
499.9567 65
500.0400 81
500.1233 46
500.2067 78
500.2900 59
500.3734 62
500.4567 61
500.5400 55
500.6234 54
500.7067 60
500.7901 54
500.8734 49
500.9567 60
501.0401 60
501.1234 36
501.2068 53
501.2901 61
501.3734 73
501.4568 44
501.5401 46
501.6235 44
501.7068 55
501.7901 40
501.8735 56
501.9568 65
502.0402 33
502.1235 92
502.2068 71
502.2902 38
502.3735 72
502.4569 62
502.5402 61
502.6235 37
502.7069 53
502.7902 57
502.8736 80
502.9569 76
503.0402 62
503.1236 72
503.2069 69
503.2903 56
503.3736 83
503.4569 59
503.5403 57
503.6236 48
503.7070 59
503.7903 61
503.8736 64
503.9570 101
504.0403 56
504.1237 59
504.2070 56
504.2903 52
504.3737 55
504.4570 64
504.5404 53
504.6237 51
504.7070 59
504.7904 57
504.8737 47
504.9571 43
505.0404 67
505.1237 47
505.2071 44
505.2904 61
505.3738 61
505.4571 68
505.5404 102
505.6238 57
505.7071 80
505.7905 56
505.8738 74
505.9571 79
506.0405 84
506.1238 79
506.2072 55
506.2905 65
506.3738 81
506.4572 58
506.5405 69
506.6239 57
506.7072 74
506.7905 92
506.8739 53
506.9572 92
507.0406 76
507.1239 58
507.2072 61
507.2906 75
507.3739 70
507.4573 42
507.5406 54
507.6239 41
507.7073 34
507.7906 48
507.8740 48
507.9573 53
508.0406 37
508.1240 38
508.2073 74
508.2907 63
508.3740 42
508.4573 65
508.5407 38
508.6240 41
508.7074 45
508.7907 49
508.8740 30
508.9574 65
509.0407 44
509.1241 33
509.2074 45
509.2907 56
509.3741 50
509.4574 72
509.5408 41
509.6241 36
509.7074 64
509.7908 49
509.8741 51
509.9575 55
510.0408 43
510.1241 49
510.2075 50
510.2908 61
510.3742 32
510.4575 40
510.5408 46
510.6242 41
510.7075 60
510.7909 57
510.8742 40
510.9575 33
511.0409 25
511.1242 49
511.2076 31
511.2909 35
511.3742 10
511.4576 36
511.5409 28
511.6243 31
511.7076 25
511.7909 44
511.8743 30
511.9576 28
512.0410 45
512.1243 20
512.2076 33
512.2910 37
512.3743 27
512.4577 33
512.5410 19
512.6243 33
512.7077 45
512.7910 47
512.8744 30
512.9577 33
513.0410 38
513.1244 61
513.2077 19
513.2911 26
513.3744 28
513.4577 35
513.5411 26
513.6244 24
513.7078 32
513.7911 51
513.8744 38
513.9578 18
514.0411 20
514.1245 20
514.2078 32
514.2911 27
514.3745 18
514.4578 15
514.5412 24
514.6245 18
514.7078 13
514.7912 21
514.8745 47
514.9579 33
515.0412 10
515.1245 16
515.2079 12
515.2912 8
515.3746 19
515.4579 19
515.5412 25
515.6246 21
515.7079 35
515.7913 25
515.8746 16
515.9579 34
516.0413 18
516.1246 34
516.2080 16
516.2913 17
516.3746 19
516.4580 39
516.5413 27
516.6247 13
516.7080 6
516.7913 19
516.8747 13
516.9580 16
517.0414 12
517.1247 7
517.2080 25
517.2914 11
517.3747 24
517.4581 20
517.5414 31
517.6247 19
517.7081 10
517.7914 21
517.8748 25
517.9581 19
518.0414 35
518.1248 41
518.2081 31
518.2915 22
518.3748 29
518.4581 23
518.5415 43
518.6248 20
518.7082 13
518.7915 13
518.8748 14
518.9582 20
519.0415 13
519.1249 18
519.2082 27
519.2915 18
519.3749 14
519.4582 22
519.5416 17
519.6249 16
519.7082 30
519.7916 19
519.8749 15
519.9583 13
520.0416 26
520.1249 20
520.2083 30
520.2916 27
520.3750 38
520.4583 25
520.5416 25
520.6250 12
520.7083 37
520.7917 38
520.8750 13
520.9583 21
521.0417 23
521.1250 8
521.2084 6
521.2917 33
521.3750 7
521.4584 7
521.5417 13
521.6251 21
521.7084 26
521.7917 13
521.8751 15
521.9584 29
522.0418 28
522.1251 29
522.2084 32
522.2918 16
522.3751 9
522.4585 10
522.5418 14
522.6251 13
522.7085 20
522.7918 24
522.8752 49
522.9585 18
523.0418 32
523.1252 12
523.2085 27
523.2919 17
523.3752 11
523.4585 7
523.5419 17
523.6252 22
523.7086 5
523.7919 32
523.8752 42
523.9586 19
524.0419 8
524.1253 6
524.2086 12
524.2919 15
524.3753 30
524.4586 4
524.5420 20
524.6253 24
524.7086 27
524.7920 20
524.8753 18
524.9587 25
525.0420 17
525.1253 18
525.2087 19
525.2920 39
525.3754 13
525.4587 30
525.5420 3
525.6254 18
525.7087 34
525.7921 21
525.8754 14
525.9587 11
526.0421 10
526.1254 6
526.2088 11
526.2921 11
526.3754 13
526.4588 0
526.5421 16
526.6255 13
526.7088 18
526.7921 8
526.8755 14
526.9588 9
527.0422 14
527.1255 10
527.2088 15
527.2922 20
527.3755 25
527.4589 24
527.5422 3
527.6255 7
527.7089 12
527.7922 9
527.8756 1
527.9589 15
528.0422 4
528.1256 12
528.2089 25
528.2923 22
528.3756 9
528.4589 19
528.5423 9
528.6256 12
528.7090 18
528.7923 8
528.8756 21
528.9590 9
529.0423 16
529.1257 36
529.2090 9
529.2923 26
529.3757 19
529.4590 19
529.5424 6
529.6257 23
529.7090 5
529.7924 27
529.8757 7
529.9591 16
530.0424 16
530.1257 26
530.2091 25
530.2924 17
530.3758 8
530.4591 17
530.5424 5
530.6258 17
530.7091 16
530.7925 14
530.8758 6
530.9591 4
531.0425 17
531.1258 13
531.2092 15
531.2925 7
531.3758 19
531.4592 11
531.5425 7
531.6259 8
531.7092 12
531.7925 8
531.8759 37
531.9592 7
532.0426 8
532.1259 30
532.2092 24
532.2926 5
532.3759 3
532.4593 17
532.5426 20
532.6259 6
532.7093 21
532.7926 35
532.8760 2
532.9593 3
533.0426 3
533.1260 8
533.2093 8
533.2927 33
533.3760 1
533.4593 7
533.5427 7
533.6260 13
533.7094 8
533.7927 32
533.8760 14
533.9594 23
534.0427 19
534.1261 36
534.2094 17
534.2927 18
534.3761 17
534.4594 7
534.5428 28
534.6261 16
534.7094 35
534.7928 21
534.8761 6
534.9595 20
535.0428 2
535.1261 9
535.2095 9
535.2928 11
535.3762 9
535.4595 13
535.5428 9
535.6262 3
535.7095 20
535.7929 18
535.8762 6
535.9595 46
536.0429 18
536.1262 16
536.2096 4
536.2929 14
536.3762 31
536.4596 13
536.5429 9
536.6263 22
536.7096 4
536.7929 3
536.8763 14
536.9596 20
537.0430 1
537.1263 15
537.2096 11
537.2930 14
537.3763 8
537.4597 4
537.5430 21
537.6263 3
537.7097 10
537.7930 2
537.8764 22
537.9597 8
538.0430 1
538.1264 1
538.2097 14
538.2931 6
538.3764 8
538.4597 8
538.5431 29
538.6264 13
538.7098 17
538.7931 10
538.8764 13
538.9598 7
539.0431 9
539.1265 18
539.2098 6
539.2931 18
539.3765 14
539.4598 21
539.5432 6
539.6265 13
539.7098 28
539.7932 31
539.8765 2
539.9599 4
540.0432 16
540.1265 20
540.2099 13
540.2932 38
540.3766 13
540.4599 2
540.5432 2
540.6266 10
540.7099 6
540.7933 8
540.8766 29
540.9599 15
541.0433 14
541.1266 9
541.2100 13
541.2933 10
541.3766 4
541.4600 10
541.5433 10
541.6267 13
541.7100 1
541.7933 14
541.8767 19
541.9600 27
542.0434 31
542.1267 12
542.2100 13
542.2934 16
542.3767 20
542.4601 15
542.5434 2
542.6267 12
542.7101 13
542.7934 17
542.8768 24
542.9601 17
543.0434 6
543.1268 8
543.2101 3
543.2935 10
543.3768 0
543.4601 8
543.5435 25
543.6268 13
543.7102 9
543.7935 43
543.8768 29
543.9602 4
544.0435 3
544.1269 11
544.2102 7
544.2935 30
544.3769 19
544.4602 9
544.5436 20
544.6269 30
544.7102 23
544.7936 3
544.8769 24
544.9603 11
545.0436 32
545.1269 11
545.2103 12
545.2936 27
545.3770 14
545.4603 19
545.5436 17
545.6270 14
545.7103 35
545.7937 7
545.8770 30
545.9603 11
546.0437 32
546.1270 8
546.2104 13
546.2937 26
546.3770 9
546.4604 4
546.5437 19
546.6271 10
546.7104 13
546.7937 9
546.8771 32
546.9604 14
547.0438 42
547.1271 25
547.2104 11
547.2938 23
547.3771 25
547.4605 10
547.5438 8
547.6271 8
547.7105 15
547.7938 2
547.8772 21
547.9605 29
548.0438 11
548.1272 19
548.2105 19
548.2939 5
548.3772 6
548.4605 22
548.5439 13
548.6272 8
548.7106 14
548.7939 18
548.8772 8
548.9606 23
549.0439 26
549.1273 16
549.2106 9
549.2939 7
549.3773 9
549.4606 34
549.5440 12
549.6273 32
549.7106 13
549.7940 18
549.8773 19
549.9607 16
550.0440 12
550.1273 6
550.2107 18
550.2940 10
550.3774 15
550.4607 19
550.5440 49
550.6274 16
550.7107 12
550.7941 6
550.8774 4
550.9607 25
551.0441 15
551.1274 20
551.2108 5
551.2941 8
551.3774 12
551.4608 30
551.5441 26
551.6275 6
551.7108 10
551.7941 8
551.8775 10
551.9608 11
552.0442 24
552.1275 34
552.2108 2
552.2942 26
552.3775 6
552.4609 19
552.5442 32
552.6275 12
552.7109 19
552.7942 8
552.8776 23
552.9609 23
553.0442 19
553.1276 6
553.2109 9
553.2943 13
553.3776 12
553.4609 32
553.5443 23
553.6276 10
553.7110 29
553.7943 11
553.8776 23
553.9610 13
554.0443 19
554.1277 13
554.2110 32
554.2943 9
554.3777 29
554.4610 11
554.5444 11
554.6277 4
554.7110 11
554.7944 15
554.8777 6
554.9611 10
555.0444 19
555.1277 6
555.2111 19
555.2944 12
555.3778 22
555.4611 21
555.5444 8
555.6278 13
555.7111 29
555.7945 4
555.8778 7
555.9611 22
556.0445 8
556.1278 30
556.2112 11
556.2945 6
556.3778 11
556.4612 22
556.5445 2
556.6279 4
556.7112 28
556.7945 28
556.8779 10
556.9612 14
557.0446 10
557.1279 7
557.2112 10
557.2946 16
557.3779 14
557.4613 6
557.5446 17
557.6279 15
557.7113 10
557.7946 3
557.8780 11
557.9613 7
558.0446 15
558.1280 13
558.2113 14
558.2947 19
558.3780 25
558.4613 4
558.5447 6
558.6280 0
558.7114 13
558.7947 7
558.8780 17
558.9614 13
559.0447 12
559.1281 2
559.2114 12
559.2947 10
559.3781 5
559.4614 11
559.5448 40
559.6281 20
559.7114 31
559.7948 16
559.8781 6
559.9615 24
560.0448 23
560.1281 21
560.2115 30
560.2948 13
560.3782 6
560.4615 18
560.5448 10
560.6282 16
560.7115 15
560.7949 23
560.8782 12
560.9615 5
561.0449 2
561.1282 18
561.2116 21
561.2949 20
561.3782 5
561.4616 17
561.5449 24
561.6283 19
561.7116 17
561.7949 10
561.8783 29
561.9616 20
562.0450 7
562.1283 21
562.2116 13
562.2950 27
562.3783 27
562.4617 20
562.5450 9
562.6283 29
562.7117 12
562.7950 53
562.8784 21
562.9617 14
563.0450 4
563.1284 29
563.2117 18
563.2951 40
563.3784 9
563.4617 27
563.5451 6
563.6284 14
563.7118 33
563.7951 41
563.8784 37
563.9618 8
564.0451 8
564.1285 21
564.2118 20
564.2951 25
564.3785 27
564.4618 15
564.5452 5
564.6285 51
564.7118 8
564.7952 8
564.8785 50
564.9619 10
565.0452 24
565.1285 46
565.2119 24
565.2952 13
565.3786 12
565.4619 14
565.5452 17
565.6286 20
565.7119 3
565.7953 11
565.8786 11
565.9619 21
566.0453 3
566.1286 19
566.2120 6
566.2953 30
566.3786 24
566.4620 12
566.5453 24
566.6287 8
566.7120 25
566.7953 11
566.8787 9
566.9620 19
567.0454 31
567.1287 20
567.2120 8
567.2954 20
567.3787 20
567.4621 27
567.5454 6
567.6287 11
567.7121 15
567.7954 15
567.8788 15
567.9621 2
568.0454 12
568.1288 3
568.2121 15
568.2955 31
568.3788 14
568.4621 3
568.5455 12
568.6288 10
568.7122 9
568.7955 13
568.8788 10
568.9622 35
569.0455 1
569.1289 9
569.2122 32
569.2955 27
569.3789 15
569.4622 26
569.5456 8
569.6289 14
569.7122 21
569.7956 18
569.8789 13
569.9623 17
570.0456 10
570.1289 15
570.2123 22
570.2956 9
570.3790 22
570.4623 38
570.5456 17
570.6290 10
570.7123 12
570.7957 41
570.8790 7
570.9623 15
571.0457 3
571.1290 14
571.2124 11
571.2957 3
571.3790 11
571.4624 8
571.5457 20
571.6291 9
571.7124 5
571.7957 11
571.8791 18
571.9624 10
572.0458 9
572.1291 4
572.2124 8
572.2958 22
572.3791 31
572.4625 13
572.5458 2
572.6291 6
572.7125 45
572.7958 14
572.8792 23
572.9625 11
573.0458 44
573.1292 15
573.2125 5
573.2959 2
573.3792 12
573.4625 4
573.5459 9
573.6292 12
573.7126 7
573.7959 13
573.8792 12
573.9626 14
574.0459 4
574.1293 7
574.2126 25
574.2959 11
574.3793 8
574.4626 14
574.5460 10
574.6293 5
574.7126 17
574.7960 30
574.8793 4
574.9627 18
575.0460 31
575.1293 19
575.2127 4
575.2960 5
575.3794 30
575.4627 3
575.5460 8
575.6294 12
575.7127 14
575.7961 22
575.8794 3
575.9627 15
576.0461 6
576.1294 7
576.2128 11
576.2961 6
576.3794 4
576.4628 9
576.5461 30
576.6295 6
576.7128 3
576.7961 29
576.8795 19
576.9628 7
577.0462 16
577.1295 13
577.2128 20
577.2962 15
577.3795 21
577.4629 11
577.5462 1
577.6295 15
577.7129 10
577.7962 11
577.8796 7
577.9629 21
578.0462 3
578.1296 54
578.2129 41
578.2963 8
578.3796 38
578.4629 7
578.5463 25
578.6296 9
578.7130 25
578.7963 12
578.8796 13
578.9630 6
579.0463 14
579.1297 27
579.2130 22
579.2963 7
579.3797 8
579.4630 11
579.5464 10
579.6297 15
579.7130 25
579.7964 13
579.8797 10
579.9631 11
580.0464 26
580.1297 7
580.2131 4
580.2964 17
580.3798 20
580.4631 10
580.5464 17
580.6298 14
580.7131 15
580.7965 0
580.8798 46
580.9631 26
581.0465 8
581.1298 8
581.2132 18
581.2965 46
581.3798 22
581.4632 4
581.5465 9
581.6299 31
581.7132 3
581.7965 17
581.8799 14
581.9632 10
582.0466 43
582.1299 16
582.2132 18
582.2966 13
582.3799 15
582.4633 18
582.5466 12
582.6299 5
582.7133 16
582.7966 1
582.8800 15
582.9633 2
583.0466 11
583.1300 15
583.2133 16
583.2967 36
583.3800 7
583.4633 13
583.5467 32
583.6300 5
583.7134 7
583.7967 30
583.8800 4
583.9634 7
584.0467 28
584.1301 9
584.2134 12
584.2967 24
584.3801 6
584.4634 21
584.5468 10
584.6301 5
584.7134 28
584.7968 47
584.8801 14
584.9635 24
585.0468 28
585.1301 26
585.2135 4
585.2968 16
585.3802 12
585.4635 5
585.5468 19
585.6302 26
585.7135 19
585.7969 16
585.8802 7
585.9635 9
586.0469 10
586.1302 14
586.2136 11
586.2969 38
586.3802 22
586.4636 7
586.5469 33
586.6303 3
586.7136 21
586.7969 9
586.8803 6
586.9636 4
587.0470 7
587.1303 25
587.2136 6
587.2970 4
587.3803 8
587.4637 14
587.5470 5
587.6303 9
587.7137 7
587.7970 0
587.8804 6
587.9637 12
588.0470 8
588.1304 20
588.2137 13
588.2971 9
588.3804 26
588.4637 17
588.5471 12
588.6304 8
588.7138 33
588.7971 18
588.8804 15
588.9638 3
589.0471 14
589.1305 9
589.2138 14
589.2971 14
589.3805 8
589.4638 19
589.5472 17
589.6305 25
589.7138 4
589.7972 15
589.8805 21
589.9639 5
590.0472 9
590.1305 40
590.2139 15
590.2972 22
590.3806 4
590.4639 18
590.5472 15
590.6306 25
590.7139 19
590.7973 3
590.8806 15
590.9639 19
591.0473 5
591.1306 11
591.2140 23
591.2973 18
591.3806 15
591.4640 2
591.5473 20
591.6307 17
591.7140 4
591.7973 23
591.8807 15
591.9640 9
592.0474 0
592.1307 19
592.2140 6
592.2974 2
592.3807 5
592.4641 41
592.5474 7
592.6307 5
592.7141 17
592.7974 10
592.8808 4
592.9641 13
593.0474 16
593.1308 8
593.2141 32
593.2975 20
593.3808 8
593.4641 9
593.5475 28
593.6308 3
593.7142 0
593.7975 2
593.8808 6
593.9642 16
594.0475 4
594.1309 22
594.2142 14
594.2975 15
594.3809 14
594.4642 11
594.5476 14
594.6309 20
594.7142 13
594.7976 19
594.8809 22
594.9643 15
595.0476 7
595.1309 15
595.2143 3
595.2976 16
595.3810 27
595.4643 29
595.5476 6
595.6310 8
595.7143 15
595.7977 34
595.8810 42
595.9643 12
596.0477 12
596.1310 12
596.2144 5
596.2977 20
596.3810 29
596.4644 12
596.5477 31
596.6311 10
596.7144 21
596.7977 2
596.8811 12
596.9644 9
597.0478 26
597.1311 13
597.2144 21
597.2978 17
597.3811 8
597.4645 25
597.5478 32
597.6311 13
597.7145 2
597.7978 7
597.8812 6
597.9645 34
598.0478 9
598.1312 8
598.2145 14
598.2979 8
598.3812 12
598.4645 11
598.5479 16
598.6312 8
598.7146 3
598.7979 10
598.8812 6
598.9646 14
599.0479 9
599.1313 22
599.2146 23
599.2979 32
599.3813 19
599.4646 27
599.5480 7
599.6313 11
599.7146 12
599.7980 4
599.8813 23
599.9647 9
