0.0000 26
0.0833 27
0.1667 4
0.2500 48
0.3334 26
0.4167 17
0.5000 29
0.5834 19
0.6667 19
0.7501 39
0.8334 21
0.9167 21
1.0001 32
1.0834 17
1.1668 19
1.2501 61
1.3334 31
1.4168 34
1.5001 23
1.5835 34
1.6668 9
1.7501 16
1.8335 22
1.9168 17
2.0002 20
2.0835 13
2.1668 49
2.2502 18
2.3335 12
2.4169 31
2.5002 37
2.5835 39
2.6669 22
2.7502 21
2.8336 10
2.9169 40
3.0002 17
3.0836 11
3.1669 8
3.2503 26
3.3336 39
3.4169 19
3.5003 18
3.5836 21
3.6670 20
3.7503 33
3.8336 51
3.9170 8
4.0003 27
4.0837 39
4.1670 22
4.2503 44
4.3337 18
4.4170 33
4.5004 27
4.5837 36
4.6670 10
4.7504 9
4.8337 19
4.9171 7
5.0004 23
5.0837 27
5.1671 219
5.2504 336
5.3338 283
5.4171 280
5.5004 259
5.5838 211
5.6671 250
5.7505 149
5.8338 171
5.9171 222
6.0005 158
6.0838 154
6.1672 173
6.2505 175
6.3338 175
6.4172 150
6.5005 107
6.5839 160
6.6672 110
6.7505 139
6.8339 128
6.9172 238
7.0006 103
7.0839 115
7.1672 175
7.2506 105
7.3339 84
7.4173 107
7.5006 78
7.5839 132
7.6673 99
7.7506 96
7.8340 67
7.9173 91
8.0006 68
8.0840 89
8.1673 134
8.2507 87
8.3340 60
8.4173 113
8.5007 74
8.5840 94
8.6674 86
8.7507 115
8.8340 60
8.9174 86
9.0007 43
9.0841 65
9.1674 51
9.2507 66
9.3341 119
9.4174 117
9.5008 77
9.5841 81
9.6674 121
9.7508 80
9.8341 89
9.9175 50
10.0008 72
10.0841 111
10.1675 58
10.2508 89
10.3342 77
10.4175 77
10.5008 97
10.5842 66
10.6675 91
10.7509 77
10.8342 67
10.9175 49
11.0009 67
11.0842 96
11.1676 81
11.2509 118
11.3342 58
11.4176 91
11.5009 41
11.5843 69
11.6676 63
11.7509 53
11.8343 54
11.9176 43
12.0010 84
12.0843 66
12.1676 119
12.2510 51
12.3343 77
12.4177 60
12.5010 61
12.5843 50
12.6677 89
12.7510 81
12.8344 75
12.9177 44
13.0010 76
13.0844 56
13.1677 46
13.2511 70
13.3344 47
13.4177 79
13.5011 49
13.5844 103
13.6678 67
13.7511 59
13.8344 57
13.9178 71
14.0011 70
14.0845 61
14.1678 62
14.2511 54
14.3345 46
14.4178 54
14.5012 79
14.5845 63
14.6678 60
14.7512 58
14.8345 77
14.9179 50
15.0012 34
15.0845 34
15.1679 120
15.2512 49
15.3346 55
15.4179 56
15.5012 45
15.5846 40
15.6679 73
15.7513 60
15.8346 38
15.9179 84
16.0013 52
16.0846 63
16.1680 23
16.2513 34
16.3346 38
16.4180 61
16.5013 43
16.5847 60
16.6680 49
16.7513 47
16.8347 37
16.9180 47
17.0014 56
17.0847 67
17.1680 43
17.2514 82
17.3347 39
17.4181 67
17.5014 45
17.5847 67
17.6681 50
17.7514 36
17.8348 56
17.9181 38
18.0014 50
18.0848 36
18.1681 53
18.2515 66
18.3348 58
18.4181 57
18.5015 76
18.5848 57
18.6682 35
18.7515 73
18.8348 36
18.9182 90
19.0015 44
19.0849 120
19.1682 77
19.2515 27
19.3349 41
19.4182 54
19.5016 46
19.5849 58
19.6682 42
19.7516 25
19.8349 22
19.9183 39
20.0016 84
20.0849 30
20.1683 35
20.2516 65
20.3350 78
20.4183 54
20.5016 15
20.5850 45
20.6683 26
20.7517 26
20.8350 29
20.9183 46
21.0017 32
21.0850 49
21.1684 38
21.2517 24
21.3350 42
21.4184 69
21.5017 40
21.5851 65
21.6684 62
21.7517 27
21.8351 47
21.9184 57
22.0018 30
22.0851 41
22.1684 61
22.2518 35
22.3351 58
22.4185 31
22.5018 52
22.5851 20
22.6685 47
22.7518 63
22.8352 20
22.9185 77
23.0018 60
23.0852 54
23.1685 55
23.2519 54
23.3352 63
23.4185 50
23.5019 57
23.5852 57
23.6686 32
23.7519 48
23.8352 24
23.9186 42
24.0019 28
24.0853 31
24.1686 56
24.2519 48
24.3353 38
24.4186 24
24.5020 41
24.5853 41
24.6686 37
24.7520 39
24.8353 54
24.9187 44
25.0020 55
25.0853 74
25.1687 63
25.2520 20
25.3354 62
25.4187 48
25.5020 27
25.5854 69
25.6687 49
25.7521 23
25.8354 39
25.9187 49
26.0021 48
26.0854 32
26.1688 50
26.2521 59
26.3354 23
26.4188 32
26.5021 42
26.5855 32
26.6688 64
26.7521 37
26.8355 28
26.9188 25
27.0022 65
27.0855 50
27.1688 42
27.2522 75
27.3355 63
27.4189 41
27.5022 42
27.5855 29
27.6689 42
27.7522 39
27.8356 59
27.9189 38
28.0022 41
28.0856 45
28.1689 86
28.2523 61
28.3356 45
28.4189 81
28.5023 36
28.5856 66
28.6690 27
28.7523 66
28.8356 38
28.9190 85
29.0023 53
29.0857 73
29.1690 28
29.2523 32
29.3357 36
29.4190 34
29.5024 42
29.5857 29
29.6690 39
29.7524 28
29.8357 36
29.9191 33
30.0024 62
30.0857 25
30.1691 16
30.2524 40
30.3358 36
30.4191 61
30.5024 45
30.5858 48
30.6691 31
30.7525 81
30.8358 27
30.9191 73
31.0025 54
31.0858 45
31.1692 36
31.2525 46
31.3358 34
31.4192 53
31.5025 48
31.5859 34
31.6692 18
31.7525 47
31.8359 19
31.9192 19
32.0026 32
32.0859 60
32.1692 45
32.2526 62
32.3359 43
32.4193 12
32.5026 34
32.5859 26
32.6693 39
32.7526 19
32.8360 39
32.9193 49
33.0026 19
33.0860 51
33.1693 38
33.2527 92
33.3360 83
33.4193 79
33.5027 50
33.5860 52
33.6694 32
33.7527 54
33.8360 35
33.9194 62
34.0027 26
34.0861 60
34.1694 47
34.2527 57
34.3361 21
34.4194 22
34.5028 26
34.5861 24
34.6694 42
34.7528 51
34.8361 35
34.9195 56
35.0028 55
35.0861 46
35.1695 43
35.2528 56
35.3362 42
35.4195 60
35.5028 41
35.5862 39
35.6695 29
35.7529 47
35.8362 44
35.9195 44
36.0029 51
36.0862 43
36.1696 23
36.2529 40
36.3362 34
36.4196 44
36.5029 75
36.5863 16
36.6696 27
36.7529 17
36.8363 61
36.9196 38
37.0030 33
37.0863 5
37.1696 33
37.2530 19
37.3363 35
37.4197 101
37.5030 50
37.5863 64
37.6697 32
37.7530 45
37.8364 31
37.9197 30
38.0030 32
38.0864 49
38.1697 38
38.2531 50
38.3364 53
38.4197 63
38.5031 34
38.5864 44
38.6698 57
38.7531 41
38.8364 49
38.9198 61
39.0031 45
39.0865 38
39.1698 50
39.2531 42
39.3365 26
39.4198 70
39.5032 55
39.5865 15
39.6698 59
39.7532 51
39.8365 24
39.9199 49
40.0032 68
40.0865 21
40.1699 44
40.2532 64
40.3366 48
40.4199 42
40.5032 37
40.5866 46
40.6699 25
40.7533 8
40.8366 60
40.9199 20
41.0033 41
41.0866 64
41.1700 31
41.2533 46
41.3366 21
41.4200 16
41.5033 39
41.5867 58
41.6700 23
41.7533 18
41.8367 35
41.9200 21
42.0034 20
42.0867 60
42.1700 33
42.2534 56
42.3367 31
42.4201 52
42.5034 58
42.5867 29
42.6701 35
42.7534 47
42.8368 34
42.9201 44
43.0034 53
43.0868 49
43.1701 60
43.2535 28
43.3368 36
43.4201 41
43.5035 54
43.5868 20
43.6702 40
43.7535 24
43.8368 24
43.9202 26
44.0035 28
44.0869 62
44.1702 62
44.2535 46
44.3369 38
44.4202 44
44.5036 31
44.5869 22
44.6702 62
44.7536 48
44.8369 38
44.9203 42
45.0036 29
45.0869 37
45.1703 34
45.2536 15
45.3370 47
45.4203 49
45.5036 27
45.5870 38
45.6703 36
45.7537 35
45.8370 27
45.9203 28
46.0037 26
46.0870 39
46.1704 52
46.2537 42
46.3370 44
46.4204 84
46.5037 15
46.5871 38
46.6704 20
46.7537 55
46.8371 18
46.9204 65
47.0038 19
47.0871 33
47.1704 20
47.2538 41
47.3371 56
47.4205 28
47.5038 43
47.5871 17
47.6705 42
47.7538 37
47.8372 43
47.9205 29
48.0038 25
48.0872 35
48.1705 58
48.2539 92
48.3372 105
48.4205 48
48.5039 49
48.5872 59
48.6706 88
48.7539 35
48.8372 11
48.9206 16
49.0039 34
49.0873 40
49.1706 45
49.2539 56
49.3373 74
49.4206 35
49.5040 33
49.5873 50
49.6706 49
49.7540 43
49.8373 44
49.9207 33
50.0040 66
50.0873 31
50.1707 39
50.2540 23
50.3374 19
50.4207 49
50.5040 37
50.5874 42
50.6707 65
50.7541 37
50.8374 34
50.9207 26
51.0041 67
51.0874 27
51.1708 21
51.2541 38
51.3374 35
51.4208 50
51.5041 50
51.5875 80
51.6708 51
51.7541 71
51.8375 66
51.9208 40
52.0042 37
52.0875 30
52.1708 22
52.2542 12
52.3375 40
52.4209 20
52.5042 37
52.5875 70
52.6709 13
52.7542 38
52.8376 51
52.9209 23
53.0042 21
53.0876 25
53.1709 11
53.2543 34
53.3376 60
53.4209 34
53.5043 25
53.5876 30
53.6710 55
53.7543 21
53.8376 69
53.9210 51
54.0043 22
54.0877 51
54.1710 88
54.2543 38
54.3377 19
54.4210 40
54.5044 43
54.5877 20
54.6710 41
54.7544 51
54.8377 32
54.9211 52
55.0044 75
55.0877 25
55.1711 7
55.2544 34
55.3378 38
55.4211 42
55.5044 47
55.5878 27
55.6711 32
55.7545 35
55.8378 45
55.9211 32
56.0045 58
56.0878 23
56.1712 39
56.2545 50
56.3378 46
56.4212 27
56.5045 61
56.5879 27
56.6712 37
56.7545 51
56.8379 42
56.9212 64
57.0046 13
57.0879 36
57.1712 21
57.2546 17
57.3379 11
57.4213 35
57.5046 31
57.5879 8
57.6713 42
57.7546 32
57.8380 28
57.9213 22
58.0046 32
58.0880 16
58.1713 24
58.2547 22
58.3380 58
58.4213 27
58.5047 72
58.5880 34
58.6714 23
58.7547 27
58.8380 61
58.9214 41
59.0047 31
59.0881 32
59.1714 34
59.2547 28
59.3381 9
59.4214 12
59.5048 20
59.5881 18
59.6714 20
59.7548 24
59.8381 46
59.9215 60
60.0048 43
60.0881 37
60.1715 37
60.2548 22
60.3382 65
60.4215 21
60.5048 22
60.5882 32
60.6715 57
60.7549 22
60.8382 27
60.9215 42
61.0049 29
61.0882 27
61.1716 23
61.2549 17
61.3382 19
61.4216 27
61.5049 47
61.5883 29
61.6716 41
61.7549 58
61.8383 32
61.9216 25
62.0050 32
62.0883 24
62.1716 57
62.2550 52
62.3383 35
62.4217 52
62.5050 60
62.5883 10
62.6717 37
62.7550 17
62.8384 26
62.9217 48
63.0050 42
63.0884 17
63.1717 41
63.2551 33
63.3384 48
63.4217 26
63.5051 44
63.5884 34
63.6718 32
63.7551 15
63.8384 45
63.9218 48
64.0051 21
64.0885 28
64.1718 48
64.2551 32
64.3385 42
64.4218 40
64.5052 43
64.5885 35
64.6718 41
64.7552 17
64.8385 21
64.9219 76
65.0052 31
65.0885 21
65.1719 22
65.2552 21
65.3386 42
65.4219 23
65.5052 35
65.5886 47
65.6719 33
65.7553 32
65.8386 48
65.9219 37
66.0053 43
66.0886 20
66.1720 18
66.2553 45
66.3386 44
66.4220 17
66.5053 46
66.5887 31
66.6720 15
66.7553 41
66.8387 26
66.9220 23
67.0054 33
67.0887 34
67.1720 27
67.2554 69
67.3387 35
67.4221 65
67.5054 45
67.5887 42
67.6721 24
67.7554 17
67.8388 35
67.9221 30
68.0054 46
68.0888 23
68.1721 58
68.2555 33
68.3388 14
68.4221 35
68.5055 19
68.5888 31
68.6722 24
68.7555 42
68.8388 47
68.9222 18
69.0055 41
69.0889 42
69.1722 27
69.2555 29
69.3389 7
69.4222 54
69.5056 14
69.5889 36
69.6722 33
69.7556 43
69.8389 12
69.9223 28
70.0056 20
70.0889 68
70.1723 31
70.2556 36
70.3390 28
70.4223 54
70.5056 58
70.5890 47
70.6723 26
70.7557 15
70.8390 25
70.9223 23
71.0057 19
71.0890 44
71.1724 29
71.2557 27
71.3390 24
71.4224 29
71.5057 26
71.5891 31
71.6724 32
71.7557 4
71.8391 44
71.9224 16
72.0058 19
72.0891 22
72.1724 25
72.2558 35
72.3391 22
72.4225 25
72.5058 7
72.5891 39
72.6725 34
72.7558 27
72.8392 22
72.9225 13
73.0058 24
73.0892 30
73.1725 27
73.2559 35
73.3392 17
73.4225 35
73.5059 57
73.5892 45
73.6726 65
73.7559 34
73.8392 42
73.9226 18
74.0059 28
74.0893 51
74.1726 33
74.2559 36
74.3393 35
74.4226 23
74.5060 27
74.5893 19
74.6726 54
74.7560 18
74.8393 26
74.9227 23
75.0060 32
75.0893 52
75.1727 20
75.2560 15
75.3394 58
75.4227 26
75.5060 38
75.5894 21
75.6727 24
75.7561 22
75.8394 37
75.9227 37
76.0061 20
76.0894 41
76.1728 36
76.2561 30
76.3394 11
76.4228 31
76.5061 34
76.5895 15
76.6728 53
76.7561 41
76.8395 22
76.9228 43
77.0062 44
77.0895 46
77.1728 36
77.2562 18
77.3395 37
77.4229 19
77.5062 57
77.5895 16
77.6729 19
77.7562 56
77.8396 35
77.9229 30
78.0062 38
78.0896 23
78.1729 40
78.2563 12
78.3396 27
78.4229 22
78.5063 32
78.5896 50
78.6730 88
78.7563 20
78.8396 34
78.9230 39
79.0063 27
79.0897 18
79.1730 34
79.2563 31
79.3397 21
79.4230 34
79.5064 23
79.5897 31
79.6730 21
79.7564 28
79.8397 16
79.9231 33
80.0064 46
80.0897 24
80.1731 28
80.2564 23
80.3398 22
80.4231 8
80.5064 52
80.5898 17
80.6731 28
80.7565 24
80.8398 30
80.9231 26
81.0065 28
81.0898 13
81.1732 42
81.2565 39
81.3398 36
81.4232 19
81.5065 23
81.5899 30
81.6732 47
81.7565 44
81.8399 31
81.9232 44
82.0066 11
82.0899 37
82.1732 21
82.2566 25
82.3399 33
82.4233 20
82.5066 32
82.5899 23
82.6733 32
82.7566 66
82.8400 32
82.9233 37
83.0066 24
83.0900 36
83.1733 42
83.2567 28
83.3400 27
83.4233 46
83.5067 17
83.5900 24
83.6734 24
83.7567 14
83.8400 15
83.9234 12
84.0067 20
84.0901 18
84.1734 45
84.2567 21
84.3401 61
84.4234 29
84.5068 41
84.5901 8
84.6734 12
84.7568 25
84.8401 23
84.9235 60
85.0068 19
85.0901 7
85.1735 39
85.2568 14
85.3402 28
85.4235 11
85.5068 47
85.5902 18
85.6735 21
85.7569 27
85.8402 27
85.9235 33
86.0069 20
86.0902 40
86.1736 19
86.2569 33
86.3402 30
86.4236 27
86.5069 31
86.5903 65
86.6736 24
86.7569 27
86.8403 25
86.9236 49
87.0070 27
87.0903 45
87.1736 36
87.2570 58
87.3403 52
87.4237 34
87.5070 64
87.5903 33
87.6737 53
87.7570 45
87.8404 32
87.9237 43
88.0070 42
88.0904 38
88.1737 48
88.2571 35
88.3404 27
88.4237 23
88.5071 10
88.5904 27
88.6738 45
88.7571 69
88.8404 15
88.9238 45
89.0071 28
89.0905 9
89.1738 42
89.2571 25
89.3405 13
89.4238 17
89.5072 33
89.5905 47
89.6738 38
89.7572 23
89.8405 29
89.9239 11
90.0072 14
90.0905 22
90.1739 8
90.2572 63
90.3406 24
90.4239 38
90.5072 26
90.5906 32
90.6739 27
90.7573 33
90.8406 28
90.9239 40
91.0073 49
91.0906 30
91.1740 25
91.2573 22
91.3406 19
91.4240 58
91.5073 34
91.5907 40
91.6740 35
91.7573 23
91.8407 22
91.9240 33
92.0074 25
92.0907 7
92.1740 35
92.2574 17
92.3407 18
92.4241 41
92.5074 41
92.5907 38
92.6741 33
92.7574 11
92.8408 31
92.9241 21
93.0074 43
93.0908 23
93.1741 33
93.2575 53
93.3408 34
93.4241 21
93.5075 20
93.5908 32
93.6742 33
93.7575 50
93.8408 67
93.9242 52
94.0075 29
94.0909 54
94.1742 43
94.2575 39
94.3409 39
94.4242 50
94.5076 44
94.5909 51
94.6742 19
94.7576 38
94.8409 28
94.9243 34
95.0076 29
95.0909 13
95.1743 46
95.2576 20
95.3410 41
95.4243 63
95.5076 55
95.5910 45
95.6743 33
95.7577 33
95.8410 35
95.9243 28
96.0077 39
96.0910 15
96.1744 25
96.2577 56
96.3410 20
96.4244 12
96.5077 39
96.5911 54
96.6744 26
96.7577 22
96.8411 32
96.9244 42
97.0078 14
97.0911 19
97.1744 25
97.2578 27
97.3411 51
97.4245 19
97.5078 24
97.5911 37
97.6745 41
97.7578 37
97.8412 27
97.9245 31
98.0078 61
98.0912 22
98.1745 26
98.2579 31
98.3412 30
98.4245 36
98.5079 20
98.5912 20
98.6746 34
98.7579 31
98.8412 64
98.9246 41
99.0079 32
99.0913 62
99.1746 37
99.2579 18
99.3413 56
99.4246 50
99.5080 52
99.5913 35
99.6746 52
99.7580 22
99.8413 53
99.9247 30
100.0080 52
100.0913 46
100.1747 71
100.2580 39
100.3414 50
100.4247 24
100.5080 49
100.5914 42
100.6747 19
100.7581 18
100.8414 27
100.9247 19
101.0081 23
101.0914 43
101.1748 65
101.2581 42
101.3414 21
101.4248 19
101.5081 34
101.5915 25
101.6748 35
101.7581 58
101.8415 20
101.9248 25
102.0082 22
102.0915 22
102.1748 24
102.2582 41
102.3415 11
102.4249 6
102.5082 46
102.5915 17
102.6749 7
102.7582 39
102.8416 33
102.9249 38
103.0082 46
103.0916 23
103.1749 22
103.2583 25
103.3416 34
103.4249 18
103.5083 30
103.5916 47
103.6750 23
103.7583 37
103.8416 47
103.9250 22
104.0083 26
104.0917 23
104.1750 39
104.2583 56
104.3417 21
104.4250 26
104.5084 33
104.5917 41
104.6750 15
104.7584 34
104.8417 40
104.9251 60
105.0084 21
105.0917 54
105.1751 21
105.2584 57
105.3418 35
105.4251 44
105.5084 39
105.5918 27
105.6751 48
105.7585 41
105.8418 27
105.9251 43
106.0085 20
106.0918 26
106.1752 33
106.2585 14
106.3418 25
106.4252 28
106.5085 38
106.5919 25
106.6752 25
106.7585 41
106.8419 47
106.9252 19
107.0086 27
107.0919 33
107.1752 42
107.2586 46
107.3419 20
107.4253 21
107.5086 38
107.5919 29
107.6753 16
107.7586 45
107.8420 16
107.9253 23
108.0086 28
108.0920 37
108.1753 33
108.2587 42
108.3420 35
108.4253 26
108.5087 34
108.5920 48
108.6754 50
108.7587 39
108.8420 20
108.9254 18
109.0087 36
109.0921 40
109.1754 51
109.2587 36
109.3421 21
109.4254 47
109.5088 32
109.5921 22
109.6754 39
109.7588 42
109.8421 43
109.9255 41
110.0088 22
110.0921 45
110.1755 25
110.2588 27
110.3422 25
110.4255 20
110.5088 17
110.5922 31
110.6755 10
110.7589 29
110.8422 34
110.9255 30
111.0089 27
111.0922 20
111.1756 15
111.2589 35
111.3422 26
111.4256 32
111.5089 21
111.5923 11
111.6756 37
111.7589 30
111.8423 51
111.9256 33
112.0090 17
112.0923 13
112.1756 26
112.2590 10
112.3423 19
112.4257 13
112.5090 24
112.5923 21
112.6757 24
112.7590 16
112.8424 10
112.9257 25
113.0090 34
113.0924 59
113.1757 38
113.2591 21
113.3424 44
113.4257 31
113.5091 52
113.5924 16
113.6758 14
113.7591 42
113.8424 36
113.9258 37
114.0091 43
114.0925 51
114.1758 35
114.2591 27
114.3425 38
114.4258 30
114.5092 27
114.5925 26
114.6758 29
114.7592 17
114.8425 46
114.9259 26
115.0092 24
115.0925 37
115.1759 19
115.2592 34
115.3426 42
115.4259 34
115.5092 40
115.5926 40
115.6759 36
115.7593 42
115.8426 18
115.9259 27
116.0093 14
116.0926 20
116.1760 19
116.2593 16
116.3426 18
116.4260 21
116.5093 16
116.5927 18
116.6760 39
116.7593 16
116.8427 47
116.9260 21
117.0094 21
117.0927 26
117.1760 9
117.2594 22
117.3427 39
117.4261 51
117.5094 64
117.5927 22
117.6761 34
117.7594 40
117.8428 44
117.9261 41
118.0094 28
118.0928 71
118.1761 31
118.2595 41
118.3428 62
118.4261 46
118.5095 34
118.5928 87
118.6762 35
118.7595 80
118.8428 36
118.9262 35
119.0095 69
119.0929 66
119.1762 44
119.2595 54
119.3429 47
119.4262 45
119.5096 40
119.5929 28
119.6762 22
119.7596 45
119.8429 37
119.9263 46
120.0096 37
120.0929 63
120.1763 25
120.2596 44
120.3430 20
120.4263 33
120.5096 37
120.5930 17
120.6763 39
120.7597 40
120.8430 27
120.9263 49
121.0097 20
121.0930 15
121.1764 35
121.2597 36
121.3430 15
121.4264 27
121.5097 17
121.5931 31
121.6764 12
121.7597 5
121.8431 26
121.9264 21
122.0098 26
122.0931 26
122.1764 13
122.2598 23
122.3431 8
122.4265 29
122.5098 33
122.5931 23
122.6765 35
122.7598 52
122.8432 36
122.9265 46
123.0098 35
123.0932 66
123.1765 19
123.2599 17
123.3432 35
123.4265 36
123.5099 12
123.5932 29
123.6766 44
123.7599 32
123.8432 25
123.9266 25
124.0099 8
124.0933 22
124.1766 81
124.2599 15
124.3433 48
124.4266 37
124.5100 38
124.5933 34
124.6766 37
124.7600 23
124.8433 25
124.9267 12
125.0100 16
125.0933 31
125.1767 27
125.2600 14
125.3434 11
125.4267 39
125.5100 28
125.5934 10
125.6767 19
125.7601 26
125.8434 28
125.9267 36
126.0101 24
126.0934 24
126.1768 13
126.2601 24
126.3434 36
126.4268 58
126.5101 15
126.5935 17
126.6768 25
126.7601 8
126.8435 15
126.9268 47
127.0102 40
127.0935 19
127.1768 30
127.2602 19
127.3435 16
127.4269 29
127.5102 54
127.5935 49
127.6769 20
127.7602 44
127.8436 43
127.9269 45
128.0102 24
128.0936 38
128.1769 55
128.2603 28
128.3436 20
128.4269 43
128.5103 27
128.5936 21
128.6770 22
128.7603 31
128.8436 52
128.9270 38
129.0103 30
129.0937 31
129.1770 47
129.2603 20
129.3437 12
129.4270 32
129.5104 34
129.5937 60
129.6770 20
129.7604 43
129.8437 40
129.9271 48
130.0104 16
130.0937 22
130.1771 28
130.2604 29
130.3438 36
130.4271 23
130.5104 29
130.5938 23
130.6771 22
130.7605 28
130.8438 32
130.9271 37
131.0105 13
131.0938 24
131.1772 43
131.2605 66
131.3438 52
131.4272 38
131.5105 64
131.5939 33
131.6772 44
131.7605 63
131.8439 49
131.9272 55
132.0106 36
132.0939 56
132.1772 67
132.2606 72
132.3439 50
132.4273 29
132.5106 83
132.5939 51
132.6773 50
132.7606 43
132.8440 55
132.9273 47
133.0106 53
133.0940 80
133.1773 70
133.2607 57
133.3440 50
133.4273 71
133.5107 54
133.5940 55
133.6774 51
133.7607 49
133.8440 36
133.9274 16
134.0107 44
134.0941 47
134.1774 33
134.2607 23
134.3441 34
134.4274 35
134.5108 33
134.5941 20
134.6774 19
134.7608 69
134.8441 6
134.9275 27
135.0108 46
135.0941 30
135.1775 34
135.2608 24
135.3442 42
135.4275 15
135.5108 23
135.5942 34
135.6775 21
135.7609 10
135.8442 21
135.9275 17
136.0109 15
136.0942 33
136.1776 31
136.2609 20
136.3442 43
136.4276 40
136.5109 20
136.5943 32
136.6776 15
136.7609 13
136.8443 27
136.9276 63
137.0110 31
137.0943 33
137.1776 36
137.2610 33
137.3443 38
137.4277 40
137.5110 37
137.5943 44
137.6777 15
137.7610 31
137.8444 20
137.9277 59
138.0110 46
138.0944 33
138.1777 40
138.2611 30
138.3444 35
138.4277 29
138.5111 32
138.5944 23
138.6778 33
138.7611 26
138.8444 41
138.9278 26
139.0111 23
139.0945 18
139.1778 25
139.2611 29
139.3445 16
139.4278 22
139.5112 14
139.5945 14
139.6778 24
139.7612 23
139.8445 33
139.9279 37
140.0112 9
140.0945 18
140.1779 21
140.2612 19
140.3446 48
140.4279 26
140.5112 30
140.5946 25
140.6779 40
140.7613 26
140.8446 29
140.9279 40
141.0113 71
141.0946 40
141.1780 47
141.2613 28
141.3446 60
141.4280 39
141.5113 26
141.5947 20
141.6780 50
141.7613 48
141.8447 42
141.9280 42
142.0114 67
142.0947 57
142.1780 31
142.2614 45
142.3447 42
142.4281 27
142.5114 55
142.5947 48
142.6781 42
142.7614 27
142.8448 63
142.9281 38
143.0114 27
143.0948 19
143.1781 76
143.2615 44
143.3448 32
143.4281 27
143.5115 48
143.5948 23
143.6782 32
143.7615 23
143.8448 19
143.9282 25
144.0115 35
144.0949 5
144.1782 15
144.2615 37
144.3449 8
144.4282 11
144.5116 31
144.5949 27
144.6782 21
144.7616 32
144.8449 41
144.9283 35
145.0116 43
145.0949 55
145.1783 36
145.2616 25
145.3450 48
145.4283 63
145.5116 54
145.5950 86
145.6783 63
145.7617 50
145.8450 34
145.9283 69
146.0117 71
146.0950 40
146.1784 47
146.2617 42
146.3450 74
146.4284 85
146.5117 69
146.5951 66
146.6784 45
146.7617 60
146.8451 48
146.9284 77
147.0118 81
147.0951 70
147.1784 74
147.2618 56
147.3451 64
147.4285 53
147.5118 51
147.5951 48
147.6785 67
147.7618 45
147.8452 45
147.9285 40
148.0118 39
148.0952 39
148.1785 54
148.2619 29
148.3452 40
148.4285 27
148.5119 47
148.5952 16
148.6786 37
148.7619 31
148.8452 20
148.9286 21
149.0119 43
149.0953 1
149.1786 35
149.2619 21
149.3453 18
149.4286 56
149.5120 24
149.5953 27
149.6786 27
149.7620 38
149.8453 31
149.9287 18
150.0120 28
150.0953 28
150.1787 22
150.2620 21
150.3454 14
150.4287 68
150.5120 19
150.5954 50
150.6787 50
150.7621 42
150.8454 27
150.9287 30
151.0121 46
151.0954 51
151.1788 42
151.2621 34
151.3454 48
151.4288 49
151.5121 38
151.5955 38
151.6788 52
151.7621 51
151.8455 54
151.9288 22
152.0122 85
152.0955 29
152.1788 23
152.2622 49
152.3455 26
152.4289 45
152.5122 19
152.5955 39
152.6789 22
152.7622 20
152.8456 39
152.9289 30
153.0122 30
153.0956 46
153.1789 24
153.2623 51
153.3456 43
153.4289 56
153.5123 27
153.5956 33
153.6790 23
153.7623 38
153.8456 19
153.9290 8
154.0123 15
154.0957 45
154.1790 47
154.2623 42
154.3457 30
154.4290 37
154.5124 54
154.5957 65
154.6790 62
154.7624 51
154.8457 56
154.9291 73
155.0124 50
155.0957 45
155.1791 38
155.2624 94
155.3458 49
155.4291 65
155.5124 69
155.5958 76
155.6791 96
155.7625 59
155.8458 40
155.9291 40
156.0125 91
156.0958 60
156.1792 52
156.2625 47
156.3458 48
156.4292 39
156.5125 42
156.5959 52
156.6792 37
156.7625 38
156.8459 61
156.9292 57
157.0126 40
157.0959 97
157.1792 72
157.2626 38
157.3459 39
157.4293 39
157.5126 16
157.5959 25
157.6793 44
157.7626 15
157.8460 33
157.9293 32
158.0126 15
158.0960 7
158.1793 41
158.2627 24
158.3460 50
158.4293 24
158.5127 3
158.5960 25
158.6794 26
158.7627 17
158.8460 21
158.9294 27
159.0127 23
159.0961 46
159.1794 34
159.2627 74
159.3461 52
159.4294 46
159.5128 73
159.5961 57
159.6794 53
159.7628 72
159.8461 67
159.9295 52
160.0128 70
160.0961 49
160.1795 61
160.2628 33
160.3462 52
160.4295 54
160.5128 67
160.5962 80
160.6795 59
160.7629 58
160.8462 40
160.9295 44
161.0129 58
161.0962 41
161.1796 60
161.2629 60
161.3462 55
161.4296 63
161.5129 66
161.5963 61
161.6796 22
161.7629 42
161.8463 53
161.9296 43
162.0130 55
162.0963 28
162.1796 23
162.2630 31
162.3463 27
162.4297 11
162.5130 31
162.5963 9
162.6797 23
162.7630 22
162.8464 18
162.9297 18
163.0130 17
163.0964 89
163.1797 17
163.2631 28
163.3464 42
163.4297 22
163.5131 37
163.5964 38
163.6798 53
163.7631 21
163.8464 46
163.9298 33
164.0131 53
164.0965 38
164.1798 41
164.2631 46
164.3465 43
164.4298 57
164.5132 36
164.5965 19
164.6798 44
164.7632 68
164.8465 38
164.9299 68
165.0132 70
165.0965 63
165.1799 27
165.2632 53
165.3466 45
165.4299 46
165.5132 48
165.5966 65
165.6799 52
165.7633 38
165.8466 47
165.9299 53
166.0133 46
166.0966 39
166.1800 34
166.2633 17
166.3466 60
166.4300 48
166.5133 37
166.5967 28
166.6800 34
166.7633 15
166.8467 36
166.9300 5
167.0134 20
167.0967 13
167.1800 10
167.2634 16
167.3467 45
167.4301 22
167.5134 44
167.5967 51
167.6801 22
167.7634 38
167.8468 18
167.9301 26
168.0134 64
168.0968 49
168.1801 56
168.2635 47
168.3468 66
168.4301 41
168.5135 47
168.5968 63
168.6802 72
168.7635 46
168.8468 78
168.9302 65
169.0135 73
169.0969 78
169.1802 105
169.2635 47
169.3469 81
169.4302 69
169.5136 69
169.5969 73
169.6802 39
169.7636 55
169.8469 64
169.9303 39
170.0136 53
170.0969 80
170.1803 63
170.2636 32
170.3470 57
170.4303 34
170.5136 45
170.5970 64
170.6803 40
170.7637 29
170.8470 31
170.9303 46
171.0137 54
171.0970 25
171.1804 42
171.2637 31
171.3470 13
171.4304 27
171.5137 28
171.5971 30
171.6804 5
171.7637 10
171.8471 27
171.9304 48
172.0138 63
172.0971 26
172.1804 26
172.2638 37
172.3471 57
172.4305 21
172.5138 52
172.5971 54
172.6805 34
172.7638 48
172.8472 58
172.9305 65
173.0138 64
173.0972 70
173.1805 103
173.2639 60
173.3472 93
173.4305 73
173.5139 99
173.5972 64
173.6806 86
173.7639 60
173.8472 89
173.9306 62
174.0139 49
174.0973 64
174.1806 71
174.2639 85
174.3473 39
174.4306 63
174.5140 74
174.5973 55
174.6806 44
174.7640 33
174.8473 33
174.9307 42
175.0140 38
175.0973 26
175.1807 46
175.2640 53
175.3474 18
175.4307 23
175.5140 25
175.5974 30
175.6807 23
175.7641 16
175.8474 49
175.9307 32
176.0141 27
176.0974 22
176.1808 24
176.2641 22
176.3474 47
176.4308 28
176.5141 44
176.5975 40
176.6808 22
176.7641 38
176.8475 42
176.9308 56
177.0142 32
177.0975 39
177.1808 52
177.2642 56
177.3475 74
177.4309 87
177.5142 78
177.5975 89
177.6809 72
177.7642 100
177.8476 106
177.9309 99
178.0142 108
178.0976 89
178.1809 106
178.2643 146
178.3476 100
178.4309 99
178.5143 110
178.5976 92
178.6810 77
178.7643 118
178.8476 74
178.9310 83
179.0143 76
179.0977 44
179.1810 86
179.2643 86
179.3477 63
179.4310 96
179.5144 75
179.5977 67
179.6810 71
179.7644 43
179.8477 48
179.9311 55
180.0144 59
180.0977 31
180.1811 28
180.2644 40
180.3478 49
180.4311 27
180.5144 36
180.5978 17
180.6811 10
180.7645 31
180.8478 24
180.9311 16
181.0145 22
181.0978 26
181.1812 17
181.2645 23
181.3478 51
181.4312 52
181.5145 46
181.5979 48
181.6812 60
181.7645 66
181.8479 49
181.9312 52
182.0146 53
182.0979 75
182.1812 84
182.2646 122
182.3479 85
182.4313 104
182.5146 94
182.5979 79
182.6813 139
182.7646 108
182.8480 100
182.9313 143
183.0146 120
183.0980 122
183.1813 115
183.2647 112
183.3480 91
183.4313 93
183.5147 92
183.5980 98
183.6814 94
183.7647 98
183.8480 99
183.9314 47
184.0147 68
184.0981 43
184.1814 58
184.2647 51
184.3481 56
184.4314 37
184.5148 43
184.5981 41
184.6814 36
184.7648 24
184.8481 44
184.9315 17
185.0148 16
185.0981 35
185.1815 40
185.2648 23
185.3482 34
185.4315 20
185.5148 18
185.5982 48
185.6815 60
185.7649 40
185.8482 68
185.9315 56
186.0149 69
186.0982 65
186.1816 87
186.2649 78
186.3482 94
186.4316 73
186.5149 60
186.5983 113
186.6816 98
186.7649 111
186.8483 130
186.9316 100
187.0150 109
187.0983 115
187.1816 101
187.2650 100
187.3483 134
187.4317 129
187.5150 99
187.5983 110
187.6817 128
187.7650 100
187.8484 113
187.9317 123
188.0150 115
188.0984 88
188.1817 76
188.2651 88
188.3484 90
188.4317 61
188.5151 89
188.5984 60
188.6818 74
188.7651 42
188.8484 32
188.9318 56
189.0151 15
189.0985 40
189.1818 53
189.2651 27
189.3485 15
189.4318 29
189.5152 21
189.5985 18
189.6818 9
189.7652 26
189.8485 39
189.9319 18
190.0152 30
190.0985 35
190.1819 25
190.2652 37
190.3486 40
190.4319 47
190.5152 37
190.5986 55
190.6819 52
190.7653 45
190.8486 65
190.9319 55
191.0153 119
191.0986 74
191.1820 92
191.2653 100
191.3486 76
191.4320 95
191.5153 88
191.5987 96
191.6820 98
191.7653 87
191.8487 118
191.9320 98
192.0154 132
192.0987 160
192.1820 110
192.2654 107
192.3487 131
192.4321 126
192.5154 125
192.5987 141
192.6821 133
192.7654 127
192.8488 129
192.9321 109
193.0154 144
193.0988 119
193.1821 112
193.2655 117
193.3488 84
193.4321 101
193.5155 102
193.5988 70
193.6822 100
193.7655 99
193.8488 72
193.9322 85
194.0155 47
194.0989 63
194.1822 69
194.2655 42
194.3489 43
194.4322 16
194.5156 30
194.5989 16
194.6822 25
194.7656 23
194.8489 18
194.9323 16
195.0156 16
195.0989 19
195.1823 67
195.2656 69
195.3490 44
195.4323 52
195.5156 68
195.5990 71
195.6823 82
195.7657 63
195.8490 84
195.9323 74
196.0157 92
196.0990 101
196.1824 89
196.2657 97
196.3490 143
196.4324 119
196.5157 113
196.5991 127
196.6824 139
196.7657 130
196.8491 126
196.9324 104
197.0158 107
197.0991 113
197.1824 132
197.2658 125
197.3491 104
197.4325 87
197.5158 139
197.5991 85
197.6825 92
197.7658 71
197.8492 74
197.9325 52
198.0158 91
198.0992 59
198.1825 36
198.2659 40
198.3492 35
198.4325 20
198.5159 24
198.5992 48
198.6826 12
198.7659 18
198.8492 17
198.9326 13
199.0159 60
199.0993 10
199.1826 46
199.2659 15
199.3493 20
199.4326 24
199.5160 35
199.5993 36
199.6826 26
199.7660 41
199.8493 49
199.9327 88
200.0160 109
200.0993 69
200.1827 81
200.2660 102
200.3494 107
200.4327 136
200.5160 129
200.5994 131
200.6827 175
200.7661 162
200.8494 162
200.9327 184
201.0161 175
201.0994 176
201.1828 147
201.2661 136
201.3494 162
201.4328 174
201.5161 165
201.5995 120
201.6828 125
201.7661 133
201.8495 124
201.9328 118
202.0162 118
202.0995 110
202.1828 127
202.2662 73
202.3495 79
202.4329 110
202.5162 62
202.5995 59
202.6829 43
202.7662 51
202.8496 38
202.9329 62
203.0162 36
203.0996 59
203.1829 32
203.2663 38
203.3496 12
203.4329 25
203.5163 30
203.5996 39
203.6830 22
203.7663 15
203.8496 16
203.9330 20
204.0163 57
204.0997 29
204.1830 28
204.2663 48
204.3497 61
204.4330 50
204.5164 69
204.5997 65
204.6830 95
204.7664 92
204.8497 74
204.9331 99
205.0164 98
205.0997 97
205.1831 124
205.2664 111
205.3498 133
205.4331 128
205.5164 140
205.5998 91
205.6831 124
205.7665 114
205.8498 168
205.9331 153
206.0165 128
206.0998 133
206.1832 167
206.2665 147
206.3498 151
206.4332 131
206.5165 150
206.5999 155
206.6832 129
206.7665 109
206.8499 108
206.9332 141
207.0166 110
207.0999 102
207.1832 79
207.2666 57
207.3499 60
207.4333 79
207.5166 48
207.5999 25
207.6833 38
207.7666 16
207.8500 24
207.9333 20
208.0166 30
208.1000 33
208.1833 63
208.2667 25
208.3500 41
208.4333 42
208.5167 34
208.6000 89
208.6834 76
208.7667 91
208.8500 111
208.9334 114
209.0167 92
209.1001 142
209.1834 166
209.2667 144
209.3501 147
209.4334 211
209.5168 201
209.6001 202
209.6834 221
209.7668 244
209.8501 279
209.9335 213
210.0168 193
210.1001 194
210.1835 213
210.2668 176
210.3502 203
210.4335 174
210.5168 194
210.6002 232
210.6835 203
210.7669 200
210.8502 148
210.9335 158
211.0169 165
211.1002 173
211.1836 174
211.2669 160
211.3502 130
211.4336 132
211.5169 131
211.6003 91
211.6836 69
211.7669 51
211.8503 53
211.9336 59
212.0170 41
212.1003 76
212.1836 32
212.2670 23
212.3503 23
212.4337 29
212.5170 21
212.6003 34
212.6837 40
212.7670 42
212.8504 56
212.9337 60
213.0170 42
213.1004 50
213.1837 57
213.2671 72
213.3504 111
213.4337 105
213.5171 109
213.6004 149
213.6838 133
213.7671 185
213.8504 215
213.9338 224
214.0171 274
214.1005 279
214.1838 254
214.2671 293
214.3505 337
214.4338 337
214.5172 360
214.6005 331
214.6838 328
214.7672 334
214.8505 360
214.9339 343
215.0172 351
215.1005 403
215.1839 361
215.2672 337
215.3506 296
215.4339 276
215.5172 270
215.6006 263
215.6839 316
215.7673 255
215.8506 259
215.9339 183
216.0173 172
216.1006 155
216.1840 152
216.2673 120
216.3506 121
216.4340 92
216.5173 67
216.6007 82
216.6840 76
216.7673 47
216.8507 26
216.9340 19
217.0174 21
217.1007 27
217.1840 8
217.2674 53
217.3507 25
217.4341 43
217.5174 27
217.6007 46
217.6841 93
217.7674 60
217.8508 87
217.9341 88
218.0174 112
218.1008 115
218.1841 144
218.2675 151
218.3508 164
218.4341 190
218.5175 226
218.6008 161
218.6842 224
218.7675 183
218.8508 204
218.9342 210
219.0175 243
219.1009 225
219.1842 259
219.2675 248
219.3509 272
219.4342 204
219.5176 234
219.6009 230
219.6842 210
219.7676 202
219.8509 217
219.9343 212
220.0176 227
220.1009 175
220.1843 158
220.2676 165
220.3510 158
220.4343 144
220.5176 141
220.6010 129
220.6843 136
220.7677 117
220.8510 91
220.9343 93
221.0177 84
221.1010 62
221.1844 40
221.2677 41
221.3510 21
221.4344 22
221.5177 17
221.6011 29
221.6844 37
221.7677 32
221.8511 18
221.9344 51
222.0178 67
222.1011 99
222.1844 110
222.2678 115
222.3511 128
222.4345 121
222.5178 137
222.6011 176
222.6845 175
222.7678 192
222.8512 250
222.9345 246
223.0178 277
223.1012 299
223.1845 302
223.2679 327
223.3512 347
223.4345 359
223.5179 347
223.6012 362
223.6846 393
223.7679 371
223.8512 358
223.9346 366
224.0179 420
224.1013 330
224.1846 333
224.2679 365
224.3513 363
224.4346 306
224.5180 316
224.6013 293
224.6846 265
224.7680 260
224.8513 242
224.9347 198
225.0180 192
225.1013 147
225.1847 206
225.2680 159
225.3514 98
225.4347 87
225.5180 110
225.6014 58
225.6847 68
225.7681 42
225.8514 36
225.9347 17
226.0181 11
226.1014 19
226.1848 22
226.2681 41
226.3514 34
226.4348 44
226.5181 36
226.6015 33
226.6848 70
226.7681 75
226.8515 83
226.9348 92
227.0182 86
227.1015 123
227.1848 149
227.2682 169
227.3515 174
227.4349 174
227.5182 163
227.6015 176
227.6849 188
227.7682 217
227.8516 246
227.9349 237
228.0182 233
228.1016 202
228.1849 246
228.2683 250
228.3516 230
228.4349 248
228.5183 225
228.6016 220
228.6850 237
228.7683 190
228.8516 213
228.9350 155
229.0183 153
229.1017 167
229.1850 123
229.2683 130
229.3517 128
229.4350 124
229.5184 89
229.6017 82
229.6850 78
229.7684 48
229.8517 70
229.9351 65
230.0184 32
230.1017 38
230.1851 31
230.2684 22
230.3518 53
230.4351 40
230.5184 30
230.6018 34
230.6851 44
230.7685 56
230.8518 84
230.9351 86
231.0185 95
231.1018 117
231.1852 126
231.2685 127
231.3518 160
231.4352 170
231.5185 190
231.6019 223
231.6852 240
231.7685 215
231.8519 270
231.9352 288
232.0186 327
232.1019 276
232.1852 316
232.2686 314
232.3519 323
232.4353 313
232.5186 351
232.6019 255
232.6853 369
232.7686 271
232.8520 351
232.9353 301
233.0186 338
233.1020 320
233.1853 263
233.2687 268
233.3520 240
233.4353 198
233.5187 208
233.6020 169
233.6854 116
233.7687 114
233.8520 95
233.9354 106
234.0187 50
234.1021 76
234.1854 53
234.2687 72
234.3521 46
234.4354 37
234.5188 44
234.6021 56
234.6854 30
234.7688 43
234.8521 54
234.9355 51
235.0188 74
235.1021 123
235.1855 95
235.2688 122
235.3522 179
235.4355 146
235.5188 154
235.6022 173
235.6855 237
235.7689 258
235.8522 270
235.9355 255
236.0189 296
236.1022 314
236.1856 353
236.2689 297
236.3522 314
236.4356 321
236.5189 349
236.6023 360
236.6856 339
236.7689 327
236.8523 328
236.9356 397
237.0190 332
237.1023 303
237.1856 321
237.2690 329
237.3523 312
237.4357 298
237.5190 251
237.6023 235
237.6857 239
237.7690 211
237.8524 188
237.9357 170
238.0190 119
238.1024 150
238.1857 135
238.2691 103
238.3524 76
238.4357 62
238.5191 66
238.6024 43
238.6858 23
238.7691 29
238.8524 26
238.9358 7
239.0191 45
239.1025 53
239.1858 17
239.2691 56
239.3525 76
239.4358 65
239.5192 104
239.6025 134
239.6858 138
239.7692 205
239.8525 236
239.9359 220
240.0192 254
240.1025 291
240.1859 368
240.2692 381
240.3526 357
240.4359 435
240.5192 485
240.6026 489
240.6859 505
240.7693 531
240.8526 536
240.9359 641
241.0193 632
241.1026 676
241.1860 575
241.2693 700
241.3526 647
241.4360 640
241.5193 612
241.6027 697
241.6860 719
241.7693 631
241.8527 566
241.9360 585
242.0194 542
242.1027 525
242.1860 412
242.2694 419
242.3527 371
242.4361 374
242.5194 362
242.6027 307
242.6861 273
242.7694 186
242.8528 161
242.9361 141
243.0194 137
243.1028 102
243.1861 66
243.2695 86
243.3528 50
243.4361 33
243.5195 24
243.6028 40
243.6862 38
243.7695 62
243.8528 100
243.9362 123
244.0195 161
244.1029 166
244.1862 197
244.2695 268
244.3529 295
244.4362 342
244.5196 419
244.6029 504
244.6862 532
244.7696 589
244.8529 650
244.9363 672
245.0196 732
245.1029 772
245.1863 810
245.2696 913
245.3530 964
245.4363 982
245.5196 993
245.6030 1008
245.6863 1012
245.7697 1032
245.8530 998
245.9363 1039
246.0197 988
246.1030 1015
246.1864 938
246.2697 895
246.3530 844
246.4364 841
246.5197 789
246.6031 714
246.6864 651
246.7697 573
246.8531 597
246.9364 475
247.0198 463
247.1031 405
247.1864 318
247.2698 266
247.3531 178
247.4365 153
247.5198 126
247.6031 118
247.6865 80
247.7698 43
247.8532 29
247.9365 33
248.0198 13
248.1032 29
248.1865 38
248.2699 64
248.3532 81
248.4365 92
248.5199 138
248.6032 146
248.6866 179
248.7699 301
248.8532 319
248.9366 388
249.0199 421
249.1033 490
249.1866 493
249.2699 573
249.3533 556
249.4366 635
249.5200 659
249.6033 738
249.6866 965
249.7700 776
249.8533 838
249.9367 811
250.0200 879
250.1033 883
250.1867 792
250.2700 875
250.3534 829
250.4367 789
250.5200 781
250.6034 748
250.6867 770
250.7701 700
250.8534 684
250.9367 671
251.0201 594
251.1034 504
251.1868 518
251.2701 458
251.3534 397
251.4368 318
251.5201 304
251.6035 270
251.6868 232
251.7701 187
251.8535 148
251.9368 118
252.0202 93
252.1035 76
252.1868 36
252.2702 26
252.3535 14
252.4369 13
252.5202 26
252.6035 54
252.6869 69
252.7702 98
252.8536 125
252.9369 169
253.0202 228
253.1036 276
253.1869 283
253.2703 354
253.3536 415
253.4369 465
253.5203 531
253.6036 651
253.6870 635
253.7703 740
253.8536 735
253.9370 813
254.0203 885
254.1037 884
254.1870 860
254.2703 931
254.3537 1091
254.4370 1050
254.5204 1119
254.6037 1039
254.6870 1116
254.7704 1128
254.8537 1148
254.9371 1090
255.0204 988
255.1037 1083
255.1871 1008
255.2704 965
255.3538 825
255.4371 802
255.5204 809
255.6038 760
255.6871 691
255.7705 623
255.8538 535
255.9371 509
256.0205 440
256.1038 368
256.1872 277
256.2705 237
256.3538 175
256.4372 160
256.5205 95
256.6039 102
256.6872 87
256.7705 32
256.8539 42
256.9372 35
257.0206 34
257.1039 100
257.1872 93
257.2706 147
257.3539 163
257.4373 196
257.5206 266
257.6039 402
257.6873 420
257.7706 552
257.8540 602
257.9373 723
258.0206 793
258.1040 841
258.1873 976
258.2707 1102
258.3540 1274
258.4373 1261
258.5207 1325
258.6040 1357
258.6874 1419
258.7707 1512
258.8540 1566
258.9374 1541
259.0207 1688
259.1041 1684
259.1874 1619
259.2707 1689
259.3541 1505
259.4374 1519
259.5208 1558
259.6041 1611
259.6874 1377
259.7708 1405
259.8541 1272
259.9375 1148
260.0208 1095
260.1041 1039
260.1875 926
260.2708 806
260.3542 737
260.4375 634
260.5208 531
260.6042 487
260.6875 350
260.7709 324
260.8542 239
260.9375 181
261.0209 156
261.1042 129
261.1876 68
261.2709 51
261.3542 74
261.4376 81
261.5209 63
261.6043 116
261.6876 171
261.7709 193
261.8543 241
261.9376 307
262.0210 343
262.1043 460
262.1876 598
262.2710 624
262.3543 775
262.4377 867
262.5210 941
262.6043 1008
262.6877 1039
262.7710 1265
262.8544 1246
262.9377 1360
263.0210 1403
263.1044 1518
263.1877 1414
263.2711 1494
263.3544 1597
263.4377 1646
263.5211 1539
263.6044 1567
263.6878 1600
263.7711 1609
263.8544 1472
263.9378 1418
264.0211 1391
264.1045 1376
264.1878 1264
264.2711 1176
264.3545 1081
264.4378 935
264.5212 904
264.6045 861
264.6878 665
264.7712 644
264.8545 519
264.9379 449
265.0212 333
265.1045 282
265.1879 180
265.2712 194
265.3546 146
265.4379 102
265.5212 53
265.6046 66
265.6879 51
265.7713 66
265.8546 90
265.9379 116
266.0213 219
266.1046 258
266.1880 293
266.2713 356
266.3546 488
266.4380 664
266.5213 609
266.6047 769
266.6880 898
266.7713 1037
266.8547 1095
266.9380 1173
267.0214 1314
267.1047 1480
267.1880 1613
267.2714 1609
267.3547 1750
267.4381 1859
267.5214 1939
267.6047 1922
267.6881 1964
267.7714 1954
267.8548 2105
267.9381 2161
268.0214 2068
268.1048 2032
268.1881 1927
268.2715 1871
268.3548 1950
268.4381 1875
268.5215 1712
268.6048 1739
268.6882 1564
268.7715 1498
268.8548 1422
268.9382 1307
269.0215 1110
269.1049 1137
269.1882 826
269.2715 786
269.3549 552
269.4382 565
269.5216 457
269.6049 386
269.6882 325
269.7716 280
269.8549 160
269.9383 148
270.0216 126
270.1049 123
270.1883 107
270.2716 117
270.3550 157
270.4383 224
270.5216 256
270.6050 408
270.6883 488
270.7717 592
270.8550 775
270.9383 843
271.0217 1030
271.1050 1245
271.1884 1406
271.2717 1712
271.3550 1765
271.4384 2042
271.5217 2247
271.6051 2399
271.6884 2557
271.7717 2771
271.8551 2888
271.9384 3194
272.0218 3273
272.1051 3396
272.1884 3499
272.2718 3440
272.3551 3576
272.4385 3534
272.5218 3735
272.6051 3744
272.6885 3506
272.7718 3641
272.8552 3556
272.9385 3550
273.0218 3395
273.1052 3113
273.1885 3128
273.2719 2935
273.3552 2893
273.4385 2539
273.5219 2433
273.6052 2101
273.6886 1910
273.7719 1759
273.8552 1577
273.9386 1366
274.0219 1179
274.1053 1009
274.1886 775
274.2719 679
274.3553 517
274.4386 367
274.5220 263
274.6053 185
274.6886 134
274.7720 98
274.8553 64
274.9387 110
275.0220 150
275.1053 261
275.1887 293
275.2720 415
275.3554 587
275.4387 697
275.5220 978
275.6054 1136
275.6887 1352
275.7721 1567
275.8554 1837
275.9387 2274
276.0221 2345
276.1054 2643
276.1888 3049
276.2721 3136
276.3554 3380
276.4388 3383
276.5221 3835
276.6055 4106
276.6888 3875
276.7721 3980
276.8555 4508
276.9388 4411
277.0222 4320
277.1055 4646
277.1888 4449
277.2722 4418
277.3555 4443
277.4389 4202
277.5222 4088
277.6055 3980
277.6889 3763
277.7722 3649
277.8556 3426
277.9389 3117
278.0222 2721
278.1056 2505
278.1889 2111
278.2723 2099
278.3556 1644
278.4389 1522
278.5223 1184
278.6056 876
278.6890 719
278.7723 596
278.8556 428
278.9390 281
279.0223 204
279.1057 159
279.1890 125
279.2723 161
279.3557 224
279.4390 310
279.5224 449
279.6057 599
279.6890 936
279.7724 1149
279.8557 1367
279.9391 1673
280.0224 2065
280.1057 2341
280.1891 2959
280.2724 3283
280.3558 3768
280.4391 4362
280.5224 4519
280.6058 5002
280.6891 5336
280.7725 5776
280.8558 6090
280.9391 6369
281.0225 6530
281.1058 7102
281.1892 6885
281.2725 7053
281.3558 7250
281.4392 7351
281.5225 7639
281.6059 7067
281.6892 7205
281.7725 7281
281.8559 6700
281.9392 6478
282.0226 6217
282.1059 5967
282.1892 5673
282.2726 5273
282.3559 4821
282.4393 4431
282.5226 4195
282.6059 3409
282.6893 2985
282.7726 2622
282.8560 2160
282.9393 1692
283.0226 1482
283.1060 1072
283.1893 737
283.2727 622
283.3560 350
283.4393 254
283.5227 202
283.6060 247
283.6894 281
283.7727 439
283.8560 722
283.9394 979
284.0227 1339
284.1061 1715
284.1894 2314
284.2727 2777
284.3561 3583
284.4394 4059
284.5228 4786
284.6061 5665
284.6894 6520
284.7728 7220
284.8561 8000
284.9395 8888
285.0228 9528
285.1061 10114
285.1895 10939
285.2728 11649
285.3562 12083
285.4395 12682
285.5228 13263
285.6062 13197
285.6895 13704
285.7729 14163
285.8562 14209
285.9395 14148
286.0229 13993
286.1062 13882
286.1896 13536
286.2729 12686
286.3562 12516
286.4396 11847
286.5229 11364
286.6063 10862
286.6896 9796
286.7729 8985
286.8563 8286
286.9396 7263
287.0230 6483
287.1063 5303
287.1896 4717
287.2730 3773
287.3563 3201
287.4397 2420
287.5230 1763
287.6063 1267
287.6897 770
287.7730 470
287.8564 244
287.9397 156
288.0230 314
288.1064 475
288.1897 862
288.2731 1450
288.3564 2157
288.4397 3038
288.5231 4009
288.6064 5043
288.6898 6672
288.7731 7926
288.8564 9558
288.9398 11571
289.0231 13114
289.1065 14991
289.1898 17219
289.2731 18812
289.3565 20681
289.4398 22938
289.5232 24908
289.6065 26389
289.6898 28743
289.7732 30016
289.8565 31141
289.9399 32484
290.0232 33654
290.1065 34484
290.1899 35245
290.2732 35987
290.3566 35485
290.4399 36130
290.5232 35674
290.6066 34887
290.6899 33495
290.7733 32653
290.8566 31878
290.9399 30190
291.0233 28213
291.1066 26237
291.1900 24402
291.2733 21835
291.3566 20189
291.4400 17705
291.5233 15529
291.6067 13480
291.6900 11186
291.7733 9401
291.8567 7771
291.9400 5990
292.0234 4999
292.1067 4063
292.1900 3767
292.2734 3904
292.3567 4972
292.4401 6410
292.5234 8256
292.6067 11486
292.6901 15350
292.7734 20007
292.8568 26087
292.9401 32889
293.0234 40721
293.1068 50288
293.1901 60517
293.2735 73365
293.3568 86810
293.4401 102895
293.5235 118032
293.6068 138513
293.6902 158754
293.7735 181082
293.8568 206310
293.9402 232885
294.0235 261299
294.1069 289987
294.1902 321973
294.2735 355248
294.3569 390889
294.4402 423454
294.5236 464358
294.6069 501071
294.6902 536458
294.7736 574347
294.8569 607988
294.9403 646449
295.0236 679233
295.1069 711147
295.1903 743205
295.2736 768654
295.3570 794845
295.4403 814720
295.5236 832161
295.6070 848932
295.6903 859457
295.7737 869399
295.8570 879001
295.9403 883786
296.0237 884076
296.1070 885995
296.1904 882815
296.2737 882383
296.3570 881190
296.4404 881695
296.5237 877929
296.6071 879311
296.6904 875149
296.7737 876918
296.8571 878549
296.9404 881212
297.0238 884087
297.1071 884343
297.1904 887004
297.2738 890484
297.3571 892991
297.4405 896324
297.5238 894980
297.6071 896540
297.6905 897681
297.7738 893898
297.8572 886468
297.9405 882565
298.0238 871273
298.1072 856904
298.1905 842348
298.2739 818804
298.3572 794610
298.4405 765537
298.5239 738965
298.6072 705960
298.6906 673946
298.7739 633982
298.8572 597925
298.9406 559597
299.0239 520871
299.1073 475799
299.1906 443644
299.2739 404805
299.3573 365304
299.4406 331637
299.5240 297292
299.6073 266603
299.6906 236369
299.7740 210420
299.8573 184621
299.9407 161884
300.0240 140559
300.1073 120174
300.1907 102683
300.2740 87547
300.3574 72728
300.4407 60776
300.5240 49518
300.6074 40686
300.6907 32036
300.7741 24778
300.8574 18549
300.9407 13549
301.0241 9526
301.1074 6381
301.1908 4019
301.2741 2279
301.3574 1426
301.4408 1106
301.5241 1317
301.6075 1978
301.6908 3031
301.7741 4562
301.8575 6324
301.9408 8574
302.0242 10790
302.1075 13257
302.1908 15738
302.2742 18520
302.3575 20815
302.4409 22981
302.5242 25727
302.6075 28381
302.6909 30730
302.7742 32957
302.8576 34305
302.9409 35365
303.0242 36782
303.1076 38414
303.1909 38854
303.2743 39244
303.3576 39401
303.4409 38628
303.5243 39935
303.6076 38656
303.6910 38393
303.7743 36932
303.8576 36463
303.9410 35700
304.0243 34352
304.1077 32567
304.1910 30915
304.2743 30516
304.3577 28404
304.4410 27584
304.5244 24762
304.6077 23667
304.6910 22508
304.7744 21414
304.8577 19344
304.9411 17978
305.0244 16439
305.1077 15663
305.1911 13870
305.2744 13525
305.3578 12415
305.4411 11574
305.5244 11221
305.6078 10412
305.6911 9815
305.7745 9230
305.8578 9261
305.9411 9182
306.0245 9273
306.1078 9259
306.1912 8933
306.2745 9243
306.3578 9106
306.4412 10105
306.5245 10158
306.6079 10338
306.6912 10446
306.7745 10758
306.8579 11253
306.9412 12042
307.0246 11979
307.1079 12457
307.1912 11903
307.2746 12519
307.3579 12582
307.4413 13577
307.5246 12776
307.6079 12092
307.6913 12619
307.7746 12132
307.8580 12424
307.9413 11778
308.0246 11450
308.1080 10350
308.1913 10575
308.2747 10579
308.3580 10023
308.4413 8587
308.5247 8116
308.6080 8105
308.6914 7379
308.7747 6746
308.8580 5652
308.9414 5205
309.0247 4523
309.1081 4538
309.1914 3584
309.2747 2974
309.3581 2574
309.4414 2239
309.5248 1727
309.6081 1364
309.6914 1165
309.7748 868
309.8581 724
309.9415 629
310.0248 483
310.1081 507
310.1915 456
310.2748 528
310.3582 629
310.4415 808
310.5248 928
310.6082 1275
310.6915 1443
310.7749 1811
310.8582 2040
310.9415 2513
311.0249 2729
311.1082 3107
311.1916 3483
311.2749 3787
311.3582 4081
311.4416 4522
311.5249 4478
311.6083 4770
311.6916 5019
311.7749 5448
311.8583 5601
311.9416 5162
312.0250 5626
312.1083 5715
312.1916 5418
312.2750 5437
312.3583 5505
312.4417 5351
312.5250 5332
312.6083 5054
312.6917 4890
312.7750 4687
312.8584 4483
312.9417 4351
313.0250 3731
313.1084 3428
313.1917 3525
313.2751 3107
313.3584 2755
313.4417 2299
313.5251 2217
313.6084 1741
313.6918 1585
313.7751 1379
313.8584 1070
313.9418 930
314.0251 744
314.1085 619
314.1918 609
314.2751 506
314.3585 415
314.4418 367
314.5252 442
314.6085 356
314.6918 458
314.7752 595
314.8585 775
314.9419 791
315.0252 1032
315.1085 1210
315.1919 1358
315.2752 1596
315.3586 1817
315.4419 1898
315.5252 2299
315.6086 2468
315.6919 2546
315.7753 2770
315.8586 2973
315.9419 3218
316.0253 3335
316.1086 3561
316.1920 3682
316.2753 3828
316.3586 3790
316.4420 4071
316.5253 4002
316.6087 3908
316.6920 3917
316.7753 3578
316.8587 3808
316.9420 3695
317.0254 3608
317.1087 3601
317.1920 3280
317.2754 3198
317.3587 3187
317.4421 2789
317.5254 2743
317.6087 2452
317.6921 2327
317.7754 2031
317.8588 1714
317.9421 1564
318.0254 1364
318.1088 1207
318.1921 898
318.2755 786
318.3588 627
318.4421 508
318.5255 412
318.6088 298
318.6922 161
318.7755 147
318.8588 75
318.9422 55
319.0255 74
319.1089 81
319.1922 151
319.2755 187
319.3589 277
319.4422 367
319.5256 517
319.6089 554
319.6922 723
319.7756 857
319.8589 962
319.9423 1024
320.0256 1243
320.1089 1464
320.1923 1483
320.2756 1695
320.3590 1709
320.4423 1808
320.5256 1896
320.6090 2010
320.6923 2079
320.7757 2125
320.8590 2213
320.9423 2157
321.0257 2211
321.1090 2213
321.1924 2186
321.2757 2090
321.3590 2021
321.4424 1892
321.5257 2041
321.6091 1822
321.6924 1785
321.7757 1577
321.8591 1505
321.9424 1383
322.0258 1309
322.1091 1088
322.1924 1043
322.2758 829
322.3591 839
322.4425 562
322.5258 472
322.6091 419
322.6925 343
322.7758 233
322.8592 206
322.9425 125
323.0258 120
323.1092 110
323.1925 126
323.2759 106
323.3592 143
323.4425 165
323.5259 212
323.6092 295
323.6926 370
323.7759 356
323.8592 507
323.9426 599
324.0259 703
324.1093 780
324.1926 983
324.2759 1123
324.3593 1083
324.4426 1278
324.5260 1350
324.6093 1458
324.6926 1540
324.7760 1600
324.8593 1740
324.9427 1828
325.0260 1804
325.1093 1848
325.1927 1972
325.2760 1865
325.3594 2070
325.4427 1903
325.5260 1815
325.6094 1830
325.6927 1832
325.7761 1644
325.8594 1703
325.9427 1604
326.0261 1322
326.1094 1444
326.1928 1207
326.2761 1124
326.3594 1088
326.4428 932
326.5261 830
326.6095 675
326.6928 587
326.7761 502
326.8595 363
326.9428 326
327.0262 250
327.1095 231
327.1928 146
327.2762 107
327.3595 54
327.4429 48
327.5262 49
327.6095 41
327.6929 90
327.7762 104
327.8596 140
327.9429 202
328.0262 230
328.1096 321
328.1929 397
328.2763 483
328.3596 613
328.4429 679
328.5263 754
328.6096 918
328.6930 966
328.7763 1145
328.8596 1125
328.9430 1360
329.0263 1410
329.1097 1506
329.1930 1565
329.2763 1722
329.3597 1799
329.4430 1757
329.5264 1831
329.6097 1773
329.6930 1835
329.7764 1903
329.8597 1956
329.9431 1795
330.0264 1702
330.1097 1778
330.1931 1658
330.2764 1641
330.3598 1560
330.4431 1455
330.5264 1407
330.6098 1337
330.6931 1176
330.7765 1103
330.8598 1002
330.9431 888
331.0265 762
331.1098 699
331.1932 609
331.2765 558
331.3598 436
331.4432 322
331.5265 292
331.6099 267
331.6932 160
331.7765 126
331.8599 100
331.9432 63
332.0266 79
332.1099 71
332.1932 97
332.2766 87
332.3599 125
332.4433 163
332.5266 198
332.6099 296
332.6933 361
332.7766 414
332.8600 556
332.9433 559
333.0266 805
333.1100 833
333.1933 813
333.2767 957
333.3600 1038
333.4433 1109
333.5267 1271
333.6100 1267
333.6934 1476
333.7767 1416
333.8600 1559
333.9434 1518
334.0267 1737
334.1101 1643
334.1934 1535
334.2767 1679
334.3601 1636
334.4434 1648
334.5268 1583
334.6101 1557
334.6934 1555
334.7768 1511
334.8601 1424
334.9435 1308
335.0268 1257
335.1101 1292
335.1935 1226
335.2768 1132
335.3602 1005
335.4435 933
335.5268 798
335.6102 743
335.6935 668
335.7769 581
335.8602 458
335.9435 431
336.0269 317
336.1102 295
336.1936 207
336.2769 147
336.3602 131
336.4436 133
336.5269 83
336.6103 83
336.6936 49
336.7769 63
336.8603 79
336.9436 103
337.0270 122
337.1103 146
337.1936 209
337.2770 271
337.3603 305
337.4437 339
337.5270 469
337.6103 521
337.6937 572
337.7770 625
337.8604 643
337.9437 773
338.0270 751
338.1104 833
338.1937 856
338.2771 925
338.3604 1052
338.4437 1018
338.5271 1009
338.6104 1112
338.6938 1159
338.7771 1124
338.8604 1103
338.9438 1130
339.0271 1072
339.1105 1046
339.1938 1001
339.2771 955
339.3605 972
339.4438 894
339.5272 811
339.6105 836
339.6938 668
339.7772 680
339.8605 570
339.9439 525
340.0272 426
340.1105 440
340.1939 362
340.2772 280
340.3606 230
340.4439 200
340.5272 186
340.6106 109
340.6939 68
340.7773 49
340.8606 32
340.9439 14
341.0273 35
341.1106 58
341.1940 62
341.2773 89
341.3606 127
341.4440 187
341.5273 228
341.6107 294
341.6940 322
341.7773 390
341.8607 436
341.9440 555
342.0274 649
342.1107 616
342.1940 706
342.2774 807
342.3607 841
342.4441 858
342.5274 997
342.6107 1024
342.6941 1144
342.7774 1095
342.8608 1177
342.9441 1189
343.0274 1304
343.1108 1219
343.1941 1200
343.2775 1275
343.3608 1229
343.4441 1146
343.5275 1121
343.6108 1214
343.6942 1143
343.7775 1072
343.8608 955
343.9442 909
344.0275 805
344.1109 788
344.1942 794
344.2775 725
344.3609 620
344.4442 579
344.5276 533
344.6109 451
344.6942 377
344.7776 301
344.8609 263
344.9443 224
345.0276 227
345.1109 136
345.1943 113
345.2776 85
345.3610 50
345.4443 48
345.5276 38
345.6110 41
345.6943 64
345.7777 95
345.8610 92
345.9443 124
346.0277 158
346.1110 174
346.1944 191
346.2777 224
346.3610 373
346.4444 317
346.5277 440
346.6111 458
346.6944 481
346.7777 502
346.8611 580
346.9444 574
347.0278 593
347.1111 722
347.1944 723
347.2778 778
347.3611 772
347.4445 730
347.5278 746
347.6111 751
347.6945 808
347.7778 769
347.8612 793
347.9445 745
348.0278 685
348.1112 705
348.1945 709
348.2779 663
348.3612 667
348.4445 662
348.5279 586
348.6112 534
348.6946 505
348.7779 382
348.8612 378
348.9446 328
349.0279 305
349.1113 244
349.1946 236
349.2779 231
349.3613 184
349.4446 138
349.5280 129
349.6113 83
349.6946 90
349.7780 67
349.8613 51
349.9447 33
350.0280 27
350.1113 46
350.1947 49
350.2780 38
350.3614 66
350.4447 69
350.5280 101
350.6114 89
350.6947 147
350.7781 163
350.8614 203
350.9447 186
351.0281 222
351.1114 215
351.1948 272
351.2781 339
351.3614 396
351.4448 307
351.5281 357
351.6115 454
351.6948 417
351.7781 465
351.8615 420
351.9448 464
352.0282 515
352.1115 475
352.1948 524
352.2782 541
352.3615 460
352.4449 495
352.5282 505
352.6115 423
352.6949 457
352.7782 488
352.8616 397
352.9449 413
353.0282 356
353.1116 378
353.1949 344
353.2783 238
353.3616 243
353.4449 241
353.5283 199
353.6116 196
353.6950 156
353.7783 146
353.8616 127
353.9450 110
354.0283 66
354.1117 82
354.1950 57
354.2783 43
354.3617 29
354.4450 33
354.5284 36
354.6117 27
354.6950 26
354.7784 27
354.8617 44
354.9451 60
355.0284 69
355.1117 91
355.1951 88
355.2784 103
355.3618 154
355.4451 176
355.5284 192
355.6118 193
355.6951 201
355.7785 223
355.8618 257
355.9451 283
356.0285 373
356.1118 315
356.1952 329
356.2785 419
356.3618 374
356.4452 325
356.5285 388
356.6119 416
356.6952 387
356.7785 398
356.8619 389
356.9452 375
357.0286 356
357.1119 389
357.1952 342
357.2786 316
357.3619 339
357.4453 282
357.5286 302
357.6119 218
357.6953 253
357.7786 258
357.8620 160
357.9453 159
358.0286 144
358.1120 151
358.1953 100
358.2787 86
358.3620 75
358.4453 44
358.5287 54
358.6120 56
358.6954 39
358.7787 41
358.8620 43
358.9454 70
359.0287 41
359.1121 92
359.1954 77
359.2787 58
359.3621 116
359.4454 108
359.5288 130
359.6121 180
359.6954 213
359.7788 217
359.8621 256
359.9455 281
360.0288 287
360.1121 255
360.1955 350
360.2788 352
360.3622 396
360.4455 412
360.5288 418
360.6122 420
360.6955 400
360.7789 428
360.8622 384
360.9455 420
361.0289 384
361.1122 431
361.1956 398
361.2789 390
361.3622 379
361.4456 383
361.5289 408
361.6123 336
361.6956 354
361.7789 320
361.8623 313
361.9456 301
362.0290 247
362.1123 201
362.1956 204
362.2790 152
362.3623 136
362.4457 120
362.5290 141
362.6123 92
362.6957 79
362.7790 71
362.8624 56
362.9457 40
363.0290 25
363.1124 18
363.1957 19
363.2791 23
363.3624 22
363.4457 30
363.5291 12
363.6124 87
363.6958 65
363.7791 50
363.8624 74
363.9458 85
364.0291 101
364.1125 118
364.1958 178
364.2791 220
364.3625 262
364.4458 263
364.5292 261
364.6125 324
364.6958 313
364.7792 336
364.8625 370
364.9459 396
365.0292 398
365.1125 457
365.1959 461
365.2792 489
365.3626 520
365.4459 470
365.5292 456
365.6126 472
365.6959 458
365.7793 425
365.8626 483
365.9459 460
366.0293 454
366.1126 408
366.1960 451
366.2793 361
366.3626 418
366.4460 373
366.5293 346
366.6127 309
366.6960 318
366.7793 263
366.8627 247
366.9460 181
367.0294 173
367.1127 153
367.1960 148
367.2794 89
367.3627 97
367.4461 90
367.5294 58
367.6127 32
367.6961 50
367.7794 49
367.8628 19
367.9461 24
368.0294 17
368.1128 28
368.1961 48
368.2795 47
368.3628 48
368.4461 90
368.5295 126
368.6128 121
368.6962 182
368.7795 152
368.8628 170
368.9462 253
369.0295 323
369.1129 264
369.1962 293
369.2795 303
369.3629 326
369.4462 410
369.5296 352
369.6129 371
369.6962 429
369.7796 398
369.8629 468
369.9463 444
370.0296 427
370.1129 454
370.1963 453
370.2796 391
370.3630 418
370.4463 401
370.5296 409
370.6130 425
370.6963 342
370.7797 355
370.8630 318
370.9463 307
371.0297 237
371.1130 247
371.1964 267
371.2797 209
371.3630 143
371.4464 154
371.5297 104
371.6131 96
371.6964 97
371.7797 63
371.8631 65
371.9464 36
372.0298 36
372.1131 25
372.1964 32
372.2798 35
372.3631 27
372.4465 26
372.5298 36
372.6131 52
372.6965 63
372.7798 71
372.8632 79
372.9465 113
373.0298 135
373.1132 155
373.1965 181
373.2799 185
373.3632 242
373.4465 276
373.5299 284
373.6132 345
373.6966 301
373.7799 386
373.8632 338
373.9466 374
374.0299 424
374.1133 393
374.1966 420
374.2799 415
374.3633 420
374.4466 435
374.5300 427
374.6133 424
374.6966 442
374.7800 411
374.8633 411
374.9467 411
375.0300 441
375.1133 353
375.1967 256
375.2800 291
375.3634 220
375.4467 267
375.5300 225
375.6134 179
375.6967 182
375.7801 129
375.8634 96
375.9467 137
376.0301 103
376.1134 85
376.1968 69
376.2801 89
376.3634 37
376.4468 56
376.5301 37
376.6135 53
376.6968 19
376.7801 33
376.8635 39
376.9468 33
377.0302 55
377.1135 49
377.1968 52
377.2802 59
377.3635 72
377.4469 85
377.5302 90
377.6135 116
377.6969 160
377.7802 206
377.8636 153
377.9469 182
378.0302 201
378.1136 222
378.1969 273
378.2803 262
378.3636 231
378.4469 254
378.5303 270
378.6136 285
378.6970 259
378.7803 270
378.8636 253
378.9470 274
379.0303 260
379.1137 277
379.1970 238
379.2803 278
379.3637 237
379.4470 241
379.5304 261
379.6137 199
379.6970 243
379.7804 187
379.8637 200
379.9471 202
380.0304 191
380.1137 152
380.1971 147
380.2804 124
380.3638 119
380.4471 145
380.5304 103
380.6138 97
380.6971 68
380.7805 79
380.8638 67
380.9471 76
381.0305 39
381.1138 40
381.1972 47
381.2805 57
381.3638 19
381.4472 62
381.5305 30
381.6139 42
381.6972 39
381.7805 45
381.8639 53
381.9472 53
382.0306 59
382.1139 67
382.1972 74
382.2806 97
382.3639 102
382.4473 89
382.5306 79
382.6139 118
382.6973 109
382.7806 133
382.8640 169
382.9473 154
383.0306 191
383.1140 149
383.1973 210
383.2807 198
383.3640 213
383.4473 174
383.5307 185
383.6140 223
383.6974 212
383.7807 212
383.8640 169
383.9474 190
384.0307 192
384.1141 164
384.1974 147
384.2807 171
384.3641 155
384.4474 171
384.5308 127
384.6141 130
384.6974 104
384.7808 120
384.8641 95
384.9475 80
385.0308 85
385.1141 50
385.1975 53
385.2808 54
385.3642 39
385.4475 25
385.5308 30
385.6142 17
385.6975 14
385.7809 9
385.8642 30
385.9475 26
386.0309 17
386.1142 22
386.1976 29
386.2809 27
386.3642 33
386.4476 57
386.5309 66
386.6143 33
386.6976 66
386.7809 99
386.8643 78
386.9476 105
387.0310 110
387.1143 109
387.1976 124
387.2810 96
387.3643 119
387.4477 133
387.5310 142
387.6143 153
387.6977 158
387.7810 165
387.8644 162
387.9477 154
388.0310 122
388.1144 173
388.1977 180
388.2811 145
388.3644 156
388.4477 141
388.5311 126
388.6144 149
388.6978 126
388.7811 145
388.8644 122
388.9478 92
389.0311 109
389.1145 91
389.1978 77
389.2811 77
389.3645 70
389.4478 73
389.5312 64
389.6145 56
389.6978 43
389.7812 36
389.8645 62
389.9479 69
390.0312 46
390.1145 67
390.1979 31
390.2812 52
390.3646 27
390.4479 30
390.5312 40
390.6146 56
390.6979 83
390.7813 51
390.8646 66
390.9479 79
391.0313 74
391.1146 70
391.1980 117
391.2813 97
391.3646 104
391.4480 101
391.5313 122
391.6147 105
391.6980 131
391.7813 135
391.8647 111
391.9480 139
392.0314 166
392.1147 153
392.1980 150
392.2814 146
392.3647 141
392.4481 165
392.5314 161
392.6147 131
392.6981 146
392.7814 187
392.8648 175
392.9481 174
393.0314 156
393.1148 124
393.1981 125
393.2815 118
393.3648 111
393.4481 100
393.5315 98
393.6148 81
393.6982 70
393.7815 69
393.8648 51
393.9482 66
394.0315 57
394.1149 42
394.1982 33
394.2815 32
394.3649 9
394.4482 25
394.5316 18
394.6149 14
394.6982 14
394.7816 9
394.8649 31
394.9483 45
395.0316 38
395.1149 25
395.1983 62
395.2816 56
395.3650 73
395.4483 73
395.5316 53
395.6150 75
395.6983 81
395.7817 73
395.8650 106
395.9483 101
396.0317 112
396.1150 138
396.1984 131
396.2817 104
396.3650 125
396.4484 125
396.5317 130
396.6151 122
396.6984 110
396.7817 98
396.8651 122
396.9484 89
397.0318 103
397.1151 93
397.1984 104
397.2818 135
397.3651 87
397.4485 73
397.5318 82
397.6151 80
397.6985 87
397.7818 57
397.8652 56
397.9485 54
398.0318 48
398.1152 46
398.1985 60
398.2819 48
398.3652 28
398.4485 38
398.5319 23
398.6152 29
398.6986 23
398.7819 31
398.8652 35
398.9486 25
399.0319 52
399.1153 30
399.1986 17
399.2819 26
399.3653 24
399.4486 25
399.5320 32
399.6153 46
399.6986 25
399.7820 42
399.8653 60
399.9487 63
400.0320 56
400.1153 66
400.1987 88
400.2820 68
400.3654 104
400.4487 89
400.5320 108
400.6154 96
400.6987 132
400.7821 138
400.8654 165
400.9487 114
401.0321 118
401.1154 143
401.1988 130
401.2821 156
401.3654 125
401.4488 129
401.5321 171
401.6155 129
401.6988 149
401.7821 144
401.8655 169
401.9488 118
402.0322 161
402.1155 142
402.1988 125
402.2822 100
402.3655 98
402.4489 120
402.5322 93
402.6155 79
402.6989 71
402.7822 88
402.8656 70
402.9489 84
403.0322 41
403.1156 68
403.1989 36
403.2823 19
403.3656 37
403.4489 27
403.5323 20
403.6156 14
403.6990 7
403.7823 45
403.8656 25
403.9490 39
404.0323 61
404.1157 48
404.1990 35
404.2823 57
404.3657 63
404.4490 85
404.5324 82
404.6157 85
404.6990 91
404.7824 98
404.8657 75
404.9491 124
405.0324 91
405.1157 144
405.1991 103
405.2824 111
405.3658 104
405.4491 127
405.5324 122
405.6158 123
405.6991 147
405.7825 112
405.8658 138
405.9491 123
406.0325 102
406.1158 132
406.1992 159
406.2825 103
406.3658 97
406.4492 142
406.5325 126
406.6159 87
406.6992 128
406.7825 97
406.8659 112
406.9492 86
407.0326 94
407.1159 125
407.1992 92
407.2826 80
407.3659 72
407.4493 103
407.5326 93
407.6159 64
407.6993 57
407.7826 45
407.8660 63
407.9493 90
408.0326 37
408.1160 42
408.1993 25
408.2827 32
408.3660 35
408.4493 22
408.5327 37
408.6160 52
408.6994 65
408.7827 40
408.8660 55
408.9494 45
409.0327 76
409.1161 65
409.1994 69
409.2827 62
409.3661 74
409.4494 73
409.5328 100
409.6161 82
409.6994 98
409.7828 90
409.8661 92
409.9495 135
410.0328 106
410.1161 96
410.1995 89
410.2828 111
410.3662 147
410.4495 132
410.5328 102
410.6162 97
410.6995 100
410.7829 77
410.8662 99
410.9495 86
411.0329 82
411.1162 62
411.1996 101
411.2829 84
411.3662 82
411.4496 57
411.5329 35
411.6163 35
411.6996 50
411.7829 52
411.8663 41
411.9496 60
412.0330 31
412.1163 25
412.1996 16
412.2830 16
412.3663 41
412.4497 13
412.5330 15
412.6163 23
412.6997 18
412.7830 9
412.8664 22
412.9497 19
413.0330 22
413.1164 14
413.1997 42
413.2831 35
413.3664 42
413.4497 58
413.5331 32
413.6164 49
413.6998 63
413.7831 49
413.8664 62
413.9498 73
414.0331 105
414.1165 71
414.1998 95
414.2831 94
414.3665 82
414.4498 88
414.5332 98
414.6165 118
414.6998 124
414.7832 139
414.8665 160
414.9499 175
415.0332 132
415.1165 127
415.1999 163
415.2832 111
415.3666 156
415.4499 74
415.5332 119
415.6166 101
415.6999 134
415.7833 80
415.8666 92
415.9499 86
416.0333 68
416.1166 60
416.2000 58
416.2833 48
416.3666 54
416.4500 35
416.5333 27
416.6167 40
416.7000 18
416.7833 15
416.8667 22
416.9500 19
417.0334 5
417.1167 13
417.2000 19
417.2834 28
417.3667 11
417.4501 29
417.5334 25
417.6167 29
417.7001 25
417.7834 34
417.8668 40
417.9501 51
418.0334 39
418.1168 68
418.2001 68
418.2835 52
418.3668 67
418.4501 56
418.5335 49
418.6168 53
418.7002 62
418.7835 60
418.8668 78
418.9502 59
419.0335 67
419.1169 70
419.2002 57
419.2835 46
419.3669 73
419.4502 47
419.5336 65
419.6169 58
419.7002 45
419.7836 91
419.8669 62
419.9503 46
420.0336 49
420.1169 38
420.2003 41
420.2836 53
420.3670 45
420.4503 47
420.5336 33
420.6170 26
420.7003 16
420.7837 30
420.8670 18
420.9503 31
421.0337 16
421.1170 5
421.2004 54
421.2837 31
421.3670 9
421.4504 13
421.5337 31
421.6171 9
421.7004 14
421.7837 29
421.8671 28
421.9504 31
422.0338 20
422.1171 29
422.2004 38
422.2838 35
422.3671 67
422.4505 46
422.5338 73
422.6171 59
422.7005 68
422.7838 85
422.8672 72
422.9505 89
423.0338 123
423.1172 90
423.2005 89
423.2839 134
423.3672 76
423.4505 151
423.5339 154
423.6172 129
423.7006 124
423.7839 134
423.8672 117
423.9506 118
424.0339 158
424.1173 140
424.2006 133
424.2839 127
424.3673 90
424.4506 94
424.5340 116
424.6173 103
424.7006 69
424.7840 121
424.8673 77
424.9507 75
425.0340 44
425.1173 35
425.2007 69
425.2840 45
425.3674 37
425.4507 24
425.5340 19
425.6174 26
425.7007 32
425.7841 18
425.8674 26
425.9507 13
426.0341 14
426.1174 6
426.2008 30
426.2841 25
426.3674 20
426.4508 16
426.5341 28
426.6175 40
426.7008 36
426.7841 42
426.8675 48
426.9508 54
427.0342 60
427.1175 49
427.2008 72
427.2842 45
427.3675 81
427.4509 71
427.5342 66
427.6175 82
427.7009 79
427.7842 101
427.8676 72
427.9509 94
428.0342 99
428.1176 99
428.2009 84
428.2843 106
428.3676 81
428.4509 94
428.5343 114
428.6176 81
428.7010 65
428.7843 75
428.8676 73
428.9510 93
429.0343 61
429.1177 81
429.2010 48
429.2843 94
429.3677 43
429.4510 35
429.5344 49
429.6177 40
429.7010 34
429.7844 31
429.8677 31
429.9511 35
430.0344 15
430.1177 20
430.2011 9
430.2844 24
430.3678 9
430.4511 41
430.5344 15
430.6178 45
430.7011 6
430.7845 31
430.8678 20
430.9511 19
431.0345 16
431.1178 22
431.2012 15
431.2845 21
431.3678 15
431.4512 25
431.5345 34
431.6179 34
431.7012 42
431.7845 39
431.8679 31
431.9512 29
432.0346 43
432.1179 58
432.2012 49
432.2846 55
432.3679 78
432.4513 86
432.5346 69
432.6179 89
432.7013 83
432.7846 75
432.8680 59
432.9513 71
433.0346 109
433.1180 60
433.2013 83
433.2847 51
433.3680 54
433.4513 67
433.5347 90
433.6180 96
433.7014 43
433.7847 62
433.8680 57
433.9514 55
434.0347 44
434.1181 41
434.2014 34
434.2847 34
434.3681 23
434.4514 31
434.5348 26
434.6181 6
434.7014 5
434.7848 10
434.8681 8
434.9515 10
435.0348 23
435.1181 14
435.2015 28
435.2848 10
435.3682 5
435.4515 37
435.5348 28
435.6182 18
435.7015 23
435.7849 29
435.8682 32
435.9515 44
436.0349 42
436.1182 37
436.2016 54
436.2849 52
436.3682 46
436.4516 66
436.5349 71
436.6183 76
436.7016 52
436.7849 52
436.8683 55
436.9516 64
437.0350 39
437.1183 69
437.2016 46
437.2850 65
437.3683 63
437.4517 44
437.5350 89
437.6183 52
437.7017 56
437.7850 66
437.8684 56
437.9517 67
438.0350 63
438.1184 56
438.2017 39
438.2851 37
438.3684 36
438.4517 23
438.5351 29
438.6184 26
438.7018 27
438.7851 21
438.8684 10
438.9518 13
439.0351 15
439.1185 19
439.2018 18
439.2851 9
439.3685 21
439.4518 12
439.5352 31
439.6185 8
439.7018 44
439.7852 15
439.8685 13
439.9519 35
440.0352 23
440.1185 32
440.2019 27
440.2852 34
440.3686 25
440.4519 30
440.5352 39
440.6186 33
440.7019 38
440.7853 31
440.8686 51
440.9519 56
441.0353 44
441.1186 80
441.2020 57
441.2853 59
441.3686 53
441.4520 56
441.5353 63
441.6187 62
441.7020 70
441.7853 51
441.8687 57
441.9520 55
442.0354 71
442.1187 62
442.2020 49
442.2854 70
442.3687 55
442.4521 70
442.5354 47
442.6187 66
442.7021 50
442.7854 46
442.8688 49
442.9521 62
443.0354 37
443.1188 61
443.2021 29
443.2855 35
443.3688 31
443.4521 42
443.5355 19
443.6188 24
443.7022 21
443.7855 19
443.8688 5
443.9522 12
444.0355 8
444.1189 8
444.2022 12
444.2855 22
444.3689 15
444.4522 19
444.5356 53
444.6189 22
444.7022 26
444.7856 26
444.8689 24
444.9523 34
445.0356 35
445.1189 45
445.2023 62
445.2856 33
445.3690 28
445.4523 77
445.5356 53
445.6190 58
445.7023 91
445.7857 65
445.8690 61
445.9523 71
446.0357 86
446.1190 58
446.2024 57
446.2857 37
446.3690 67
446.4524 48
446.5357 85
446.6191 40
446.7024 69
446.7857 52
446.8691 54
446.9524 68
447.0358 46
447.1191 48
447.2024 61
447.2858 51
447.3691 38
447.4525 32
447.5358 35
447.6191 24
447.7025 31
447.7858 37
447.8692 27
447.9525 13
448.0358 35
448.1192 20
448.2025 11
448.2859 36
448.3692 17
448.4525 13
448.5359 20
448.6192 8
448.7026 18
448.7859 8
448.8692 63
448.9526 21
449.0359 10
449.1193 18
449.2026 9
449.2859 26
449.3693 49
449.4526 41
449.5360 23
449.6193 51
449.7026 37
449.7860 46
449.8693 37
449.9527 58
450.0360 84
450.1193 58
450.2027 63
450.2860 61
450.3694 82
450.4527 75
450.5360 74
450.6194 128
450.7027 80
450.7861 93
450.8694 87
450.9527 78
451.0361 101
451.1194 93
451.2028 104
451.2861 80
451.3694 79
451.4528 89
451.5361 79
451.6195 73
451.7028 94
451.7861 60
451.8695 52
451.9528 81
452.0362 62
452.1195 58
452.2028 45
452.2862 65
452.3695 51
452.4529 43
452.5362 31
452.6195 56
452.7029 33
452.7862 38
452.8696 38
452.9529 27
453.0362 38
453.1196 12
453.2029 27
453.2863 37
453.3696 6
453.4529 37
453.5363 21
453.6196 21
453.7030 9
453.7863 12
453.8696 25
453.9530 25
454.0363 15
454.1197 30
454.2030 25
454.2863 19
454.3697 23
454.4530 28
454.5364 20
454.6197 50
454.7030 31
454.7864 44
454.8697 18
454.9531 48
455.0364 54
455.1197 49
455.2031 48
455.2864 49
455.3698 48
455.4531 41
455.5364 51
455.6198 50
455.7031 40
455.7865 84
455.8698 41
455.9531 41
456.0365 56
456.1198 65
456.2032 93
456.2865 37
456.3698 23
456.4532 23
456.5365 29
456.6199 37
456.7032 18
456.7865 28
456.8699 49
456.9532 36
457.0366 33
457.1199 22
457.2032 25
457.2866 23
457.3699 6
457.4533 5
457.5366 8
457.6199 10
457.7033 14
457.7866 38
457.8700 5
457.9533 4
458.0366 5
458.1200 8
458.2033 9
458.2867 8
458.3700 14
458.4533 9
458.5367 31
458.6200 18
458.7034 16
458.7867 30
458.8700 19
458.9534 30
459.0367 53
459.1201 48
459.2034 55
459.2867 41
459.3701 32
459.4534 28
459.5368 31
459.6201 48
459.7034 32
459.7868 39
459.8701 51
459.9535 52
460.0368 36
460.1201 49
460.2035 45
460.2868 55
460.3702 42
460.4535 46
460.5368 42
460.6202 29
460.7035 43
460.7869 36
460.8702 22
460.9535 32
461.0369 41
461.1202 34
461.2036 12
461.2869 23
461.3702 14
461.4536 17
461.5369 26
461.6203 15
461.7036 17
461.7869 8
461.8703 26
461.9536 12
462.0370 19
462.1203 22
462.2036 13
462.2870 23
462.3703 32
462.4537 7
462.5370 23
462.6203 31
462.7037 52
462.7870 33
462.8704 18
462.9537 37
463.0370 39
463.1204 36
463.2037 49
463.2871 50
463.3704 35
463.4537 30
463.5371 46
463.6204 48
463.7038 31
463.7871 62
463.8704 50
463.9538 60
464.0371 52
464.1205 68
464.2038 52
464.2871 59
464.3705 55
464.4538 39
464.5372 53
464.6205 59
464.7038 46
464.7872 45
464.8705 49
464.9539 58
465.0372 52
465.1205 56
465.2039 40
465.2872 59
465.3706 55
465.4539 31
465.5372 36
465.6206 53
465.7039 39
465.7873 41
465.8706 66
465.9539 47
466.0373 31
466.1206 39
466.2040 35
466.2873 68
466.3706 24
466.4540 24
466.5373 17
466.6207 45
466.7040 17
466.7873 12
466.8707 20
466.9540 32
467.0374 47
467.1207 38
467.2040 26
467.2874 20
467.3707 23
467.4541 38
467.5374 22
467.6207 35
467.7041 21
467.7874 35
467.8708 56
467.9541 26
468.0374 40
468.1208 54
468.2041 51
468.2875 37
468.3708 33
468.4541 26
468.5375 59
468.6208 33
468.7042 58
468.7875 49
468.8708 37
468.9542 67
469.0375 46
469.1209 52
469.2042 42
469.2875 41
469.3709 44
469.4542 51
469.5376 48
469.6209 42
469.7042 28
469.7876 37
469.8709 34
469.9543 56
470.0376 32
470.1209 50
470.2043 33
470.2876 27
470.3710 35
470.4543 21
470.5376 26
470.6210 38
470.7043 35
470.7877 27
470.8710 10
470.9543 15
471.0377 13
471.1210 18
471.2044 14
471.2877 33
471.3710 25
471.4544 42
471.5377 25
471.6211 11
471.7044 18
471.7877 9
471.8711 8
471.9544 13
472.0378 26
472.1211 17
472.2044 12
472.2878 43
472.3711 9
472.4545 24
472.5378 19
472.6211 14
472.7045 22
472.7878 23
472.8712 8
472.9545 10
473.0378 22
473.1212 32
473.2045 13
473.2879 14
473.3712 16
473.4545 24
473.5379 27
473.6212 27
473.7046 24
473.7879 34
473.8712 19
473.9546 22
474.0379 33
474.1213 45
474.2046 20
474.2879 23
474.3713 7
474.4546 63
474.5380 49
474.6213 41
474.7046 53
474.7880 24
474.8713 19
474.9547 14
475.0380 9
475.1213 27
475.2047 27
475.2880 49
475.3714 16
475.4547 16
475.5380 10
475.6214 12
475.7047 24
475.7881 13
475.8714 34
475.9547 18
476.0381 3
476.1214 9
476.2048 15
476.2881 21
476.3714 17
476.4548 8
476.5381 28
476.6215 7
476.7048 17
476.7881 9
476.8715 10
476.9548 19
477.0382 26
477.1215 24
477.2048 19
477.2882 65
477.3715 48
477.4549 31
477.5382 56
477.6215 19
477.7049 34
477.7882 25
477.8716 40
477.9549 33
478.0382 40
478.1216 33
478.2049 36
478.2883 26
478.3716 28
478.4549 21
478.5383 25
478.6216 11
478.7050 11
478.7883 22
478.8716 29
478.9550 24
479.0383 21
479.1217 13
479.2050 40
479.2883 41
479.3717 19
479.4550 8
479.5384 18
479.6217 16
479.7050 12
479.7884 7
479.8717 13
479.9551 29
480.0384 18
480.1217 22
480.2051 12
480.2884 5
480.3718 9
480.4551 13
480.5384 12
480.6218 31
480.7051 16
480.7885 4
480.8718 12
480.9551 20
481.0385 7
481.1218 32
481.2052 4
481.2885 17
481.3718 12
481.4552 47
481.5385 8
481.6219 26
481.7052 18
481.7885 27
481.8719 17
481.9552 37
482.0386 26
482.1219 22
482.2052 26
482.2886 24
482.3719 31
482.4553 34
482.5386 24
482.6219 36
482.7053 17
482.7886 44
482.8720 33
482.9553 47
483.0386 41
483.1220 28
483.2053 24
483.2887 40
483.3720 28
483.4553 43
483.5387 37
483.6220 23
483.7054 27
483.7887 27
483.8720 37
483.9554 24
484.0387 35
484.1221 12
484.2054 26
484.2887 47
484.3721 12
484.4554 24
484.5388 21
484.6221 25
484.7054 22
484.7888 11
484.8721 30
484.9555 16
485.0388 16
485.1221 9
485.2055 11
485.2888 19
485.3722 10
485.4555 27
485.5388 10
485.6222 14
485.7055 42
485.7889 23
485.8722 19
485.9555 25
486.0389 21
486.1222 24
486.2056 27
486.2889 14
486.3722 35
486.4556 32
486.5389 33
486.6223 31
486.7056 28
486.7889 40
486.8723 21
486.9556 32
487.0390 24
487.1223 67
487.2056 30
487.2890 54
487.3723 53
487.4557 28
487.5390 23
487.6223 31
487.7057 25
487.7890 32
487.8724 35
487.9557 28
488.0390 27
488.1224 22
488.2057 27
488.2891 32
488.3724 13
488.4557 14
488.5391 35
488.6224 6
488.7058 9
488.7891 12
488.8724 46
488.9558 24
489.0391 22
489.1225 25
489.2058 9
489.2891 7
489.3725 37
489.4558 25
489.5392 13
489.6225 6
489.7058 17
489.7892 27
489.8725 21
489.9559 0
490.0392 15
490.1225 15
490.2059 17
490.2892 8
490.3726 7
490.4559 10
490.5392 26
490.6226 6
490.7059 13
490.7893 13
490.8726 23
490.9559 10
491.0393 17
491.1226 15
491.2060 13
491.2893 35
491.3726 23
491.4560 29
491.5393 27
491.6227 18
491.7060 22
491.7893 20
491.8727 32
491.9560 15
492.0394 32
492.1227 26
492.2060 30
492.2894 14
492.3727 20
492.4561 23
492.5394 17
492.6227 36
492.7061 15
492.7894 46
492.8728 15
492.9561 22
493.0394 6
493.1228 6
493.2061 13
493.2895 28
493.3728 28
493.4561 16
493.5395 16
493.6228 35
493.7062 18
493.7895 12
493.8728 25
493.9562 17
494.0395 14
494.1229 12
494.2062 20
494.2895 11
494.3729 7
494.4562 9
494.5396 15
494.6229 16
494.7062 28
494.7896 17
494.8729 14
494.9563 4
495.0396 13
495.1229 18
495.2063 11
495.2896 18
495.3730 30
495.4563 19
495.5396 6
495.6230 13
495.7063 12
495.7897 10
495.8730 27
495.9563 20
496.0397 18
496.1230 21
496.2064 21
496.2897 9
496.3730 22
496.4564 22
496.5397 24
496.6231 32
496.7064 45
496.7897 11
496.8731 24
496.9564 48
497.0398 17
497.1231 20
497.2064 16
497.2898 21
497.3731 15
497.4565 22
497.5398 18
497.6231 26
497.7065 21
497.7898 17
497.8732 30
497.9565 16
498.0398 36
498.1232 35
498.2065 26
498.2899 10
498.3732 20
498.4565 9
498.5399 22
498.6232 20
498.7066 8
498.7899 2
498.8732 8
498.9566 9
499.0399 6
499.1233 2
499.2066 5
499.2899 10
499.3733 10
499.4566 10
499.5400 7
499.6233 22
499.7066 34
499.7900 15
499.8733 15
499.9567 16
500.0400 12
500.1233 0
500.2067 10
500.2900 20
500.3734 29
500.4567 24
500.5400 16
500.6234 26
500.7067 9
500.7901 21
500.8734 30
500.9567 3
501.0401 31
501.1234 7
501.2068 31
501.2901 31
501.3734 23
501.4568 10
501.5401 41
501.6235 32
501.7068 17
501.7901 24
501.8735 22
501.9568 25
502.0402 24
502.1235 10
502.2068 10
502.2902 20
502.3735 12
502.4569 22
502.5402 22
502.6235 14
502.7069 20
502.7902 13
502.8736 1
502.9569 22
503.0402 4
503.1236 6
503.2069 16
503.2903 19
503.3736 4
503.4569 5
503.5403 15
503.6236 21
503.7070 23
503.7903 29
503.8736 6
503.9570 3
504.0403 14
504.1237 9
504.2070 21
504.2903 13
504.3737 5
504.4570 13
504.5404 50
504.6237 12
504.7070 15
504.7904 24
504.8737 21
504.9571 25
505.0404 20
505.1237 19
505.2071 12
505.2904 9
505.3738 23
505.4571 13
505.5404 21
505.6238 12
505.7071 12
505.7905 14
505.8738 11
505.9571 6
506.0405 15
506.1238 16
506.2072 6
506.2905 25
506.3738 35
506.4572 31
506.5405 15
506.6239 9
506.7072 8
506.7905 9
506.8739 26
506.9572 6
507.0406 19
507.1239 6
507.2072 27
507.2906 9
507.3739 24
507.4573 17
507.5406 11
507.6239 21
507.7073 8
507.7906 4
507.8740 27
507.9573 23
508.0406 17
508.1240 8
508.2073 5
508.2907 5
508.3740 20
508.4573 19
508.5407 15
508.6240 6
508.7074 12
508.7907 12
508.8740 7
508.9574 8
509.0407 16
509.1241 5
509.2074 15
509.2907 11
509.3741 15
509.4574 5
509.5408 28
509.6241 14
509.7074 21
509.7908 32
509.8741 14
509.9575 6
510.0408 20
510.1241 8
510.2075 24
510.2908 32
510.3742 3
510.4575 13
510.5408 6
510.6242 22
510.7075 20
510.7909 16
510.8742 15
510.9575 13
511.0409 13
511.1242 16
511.2076 10
511.2909 6
511.3742 43
511.4576 5
511.5409 8
511.6243 9
511.7076 7
511.7909 12
511.8743 9
511.9576 6
512.0410 8
512.1243 23
512.2076 6
512.2910 20
512.3743 21
512.4577 5
512.5410 8
512.6243 6
512.7077 20
512.7910 24
512.8744 10
512.9577 29
513.0410 3
513.1244 14
513.2077 6
513.2911 3
513.3744 14
513.4577 19
513.5411 10
513.6244 15
513.7078 2
513.7911 8
513.8744 40
513.9578 21
514.0411 11
514.1245 6
514.2078 11
514.2911 21
514.3745 37
514.4578 29
514.5412 15
514.6245 12
514.7078 16
514.7912 3
514.8745 19
514.9579 19
515.0412 34
515.1245 14
515.2079 19
515.2912 4
515.3746 12
515.4579 12
515.5412 14
515.6246 37
515.7079 6
515.7913 14
515.8746 19
515.9579 19
516.0413 27
516.1246 7
516.2080 16
516.2913 10
516.3746 7
516.4580 9
516.5413 7
516.6247 16
516.7080 26
516.7913 6
516.8747 11
516.9580 4
517.0414 12
517.1247 8
517.2080 2
517.2914 0
517.3747 7
517.4581 21
517.5414 16
517.6247 19
517.7081 10
517.7914 17
517.8748 12
517.9581 2
518.0414 15
518.1248 13
518.2081 4
518.2915 3
518.3748 13
518.4581 5
518.5415 9
518.6248 2
518.7082 14
518.7915 6
518.8748 1
518.9582 4
519.0415 29
519.1249 18
519.2082 1
519.2915 10
519.3749 9
519.4582 13
519.5416 19
519.6249 16
519.7082 12
519.7916 21
519.8749 18
519.9583 15
520.0416 19
520.1249 20
520.2083 12
520.2916 11
520.3750 3
520.4583 8
520.5416 5
520.6250 29
520.7083 3
520.7917 15
520.8750 25
520.9583 17
521.0417 25
521.1250 11
521.2084 1
521.2917 12
521.3750 6
521.4584 7
521.5417 22
521.6251 16
521.7084 23
521.7917 17
521.8751 10
521.9584 14
522.0418 35
522.1251 9
522.2084 10
522.2918 6
522.3751 38
522.4585 11
522.5418 4
522.6251 4
522.7085 6
522.7918 24
522.8752 3
522.9585 7
523.0418 8
523.1252 14
523.2085 18
523.2919 6
523.3752 31
523.4585 8
523.5419 14
523.6252 8
523.7086 10
523.7919 8
523.8752 5
523.9586 3
524.0419 11
524.1253 20
524.2086 5
524.2919 14
524.3753 5
524.4586 25
524.5420 3
524.6253 5
524.7086 18
524.7920 15
524.8753 3
524.9587 22
525.0420 15
525.1253 16
525.2087 28
525.2920 12
525.3754 14
525.4587 13
525.5420 4
525.6254 10
525.7087 6
525.7921 33
525.8754 7
525.9587 9
526.0421 1
526.1254 16
526.2088 4
526.2921 6
526.3754 13
526.4588 5
526.5421 13
526.6255 7
526.7088 36
526.7921 23
526.8755 15
526.9588 6
527.0422 13
527.1255 13
527.2088 9
527.2922 6
527.3755 15
527.4589 3
527.5422 16
527.6255 11
527.7089 22
527.7922 12
527.8756 2
527.9589 0
528.0422 32
528.1256 5
528.2089 16
528.2923 6
528.3756 6
528.4589 12
528.5423 7
528.6256 23
528.7090 20
528.7923 2
528.8756 5
528.9590 20
529.0423 8
529.1257 31
529.2090 24
529.2923 5
529.3757 10
529.4590 35
529.5424 2
529.6257 12
529.7090 30
529.7924 10
529.8757 13
529.9591 12
530.0424 8
530.1257 17
530.2091 20
530.2924 19
530.3758 11
530.4591 9
530.5424 5
530.6258 17
530.7091 13
530.7925 3
530.8758 15
530.9591 25
531.0425 16
531.1258 21
531.2092 15
531.2925 16
531.3758 12
531.4592 12
531.5425 8
531.6259 7
531.7092 16
531.7925 13
531.8759 4
531.9592 4
532.0426 12
532.1259 12
532.2092 8
532.2926 52
532.3759 5
532.4593 27
532.5426 2
532.6259 14
532.7093 7
532.7926 7
532.8760 11
532.9593 15
533.0426 5
533.1260 12
533.2093 15
533.2927 18
533.3760 13
533.4593 8
533.5427 14
533.6260 23
533.7094 10
533.7927 13
533.8760 11
533.9594 19
534.0427 20
534.1261 7
534.2094 17
534.2927 21
534.3761 17
534.4594 8
534.5428 0
534.6261 9
534.7094 7
534.7928 11
534.8761 9
534.9595 24
535.0428 4
535.1261 7
535.2095 11
535.2928 15
535.3762 27
535.4595 5
535.5428 26
535.6262 7
535.7095 27
535.7929 24
535.8762 3
535.9595 9
536.0429 8
536.1262 8
536.2096 16
536.2929 3
536.3762 15
536.4596 6
536.5429 25
536.6263 10
536.7096 11
536.7929 19
536.8763 22
536.9596 18
537.0430 16
537.1263 11
537.2096 9
537.2930 12
537.3763 10
537.4597 1
537.5430 10
537.6263 6
537.7097 20
537.7930 16
537.8764 19
537.9597 14
538.0430 9
538.1264 9
538.2097 23
538.2931 20
538.3764 17
538.4597 8
538.5431 19
538.6264 11
538.7098 9
538.7931 9
538.8764 23
538.9598 11
539.0431 17
539.1265 0
539.2098 23
539.2931 14
539.3765 10
539.4598 12
539.5432 5
539.6265 3
539.7098 19
539.7932 9
539.8765 6
539.9599 8
540.0432 6
540.1265 19
540.2099 4
540.2932 11
540.3766 10
540.4599 14
540.5432 12
540.6266 6
540.7099 2
540.7933 22
540.8766 18
540.9599 7
541.0433 2
541.1266 8
541.2100 5
541.2933 2
541.3766 12
541.4600 7
541.5433 12
541.6267 19
541.7100 21
541.7933 49
541.8767 13
541.9600 4
542.0434 10
542.1267 2
542.2100 6
542.2934 27
542.3767 20
542.4601 23
542.5434 7
542.6267 5
542.7101 8
542.7934 11
542.8768 0
542.9601 2
543.0434 14
543.1268 5
543.2101 12
543.2935 6
543.3768 5
543.4601 7
543.5435 15
543.6268 35
543.7102 13
543.7935 7
543.8768 12
543.9602 16
544.0435 7
544.1269 16
544.2102 32
544.2935 10
544.3769 14
544.4602 8
544.5436 5
544.6269 33
544.7102 2
544.7936 12
544.8769 9
544.9603 9
545.0436 2
545.1269 8
545.2103 15
545.2936 31
545.3770 16
545.4603 11
545.5436 11
545.6270 8
545.7103 11
545.7937 8
545.8770 10
545.9603 28
546.0437 10
546.1270 6
546.2104 5
546.2937 8
546.3770 8
546.4604 4
546.5437 17
546.6271 9
546.7104 19
546.7937 5
546.8771 5
546.9604 16
547.0438 5
547.1271 23
547.2104 5
547.2938 12
547.3771 30
547.4605 10
547.5438 22
547.6271 10
547.7105 3
547.7938 6
547.8772 8
547.9605 23
548.0438 3
548.1272 20
548.2105 9
548.2939 1
548.3772 8
548.4605 5
548.5439 32
548.6272 19
548.7106 25
548.7939 0
548.8772 14
548.9606 7
549.0439 5
549.1273 13
549.2106 22
549.2939 5
549.3773 7
549.4606 8
549.5440 16
549.6273 4
549.7106 19
549.7940 0
549.8773 32
549.9607 40
550.0440 1
550.1273 20
550.2107 26
550.2940 21
550.3774 2
550.4607 4
550.5440 4
550.6274 8
550.7107 17
550.7941 24
550.8774 31
550.9607 34
551.0441 7
551.1274 11
551.2108 10
551.2941 25
551.3774 10
551.4608 9
551.5441 3
551.6275 11
551.7108 19
551.7941 7
551.8775 12
551.9608 12
552.0442 2
552.1275 2
552.2108 15
552.2942 20
552.3775 16
552.4609 10
552.5442 25
552.6275 8
552.7109 12
552.7942 9
552.8776 4
552.9609 4
553.0442 19
553.1276 18
553.2109 22
553.2943 11
553.3776 9
553.4609 9
553.5443 3
553.6276 9
553.7110 25
553.7943 20
553.8776 19
553.9610 7
554.0443 6
554.1277 1
554.2110 11
554.2943 13
554.3777 6
554.4610 25
554.5444 23
554.6277 13
554.7110 15
554.7944 15
554.8777 8
554.9611 4
555.0444 19
555.1277 7
555.2111 54
555.2944 21
555.3778 7
555.4611 25
555.5444 16
555.6278 21
555.7111 8
555.7945 12
555.8778 8
555.9611 32
556.0445 11
556.1278 26
556.2112 3
556.2945 5
556.3778 12
556.4612 7
556.5445 29
556.6279 28
556.7112 16
556.7945 7
556.8779 5
556.9612 7
557.0446 11
557.1279 11
557.2112 4
557.2946 16
557.3779 14
557.4613 9
557.5446 17
557.6279 7
557.7113 12
557.7946 15
557.8780 3
557.9613 8
558.0446 3
558.1280 10
558.2113 12
558.2947 5
558.3780 20
558.4613 9
558.5447 3
558.6280 14
558.7114 10
558.7947 26
558.8780 5
558.9614 7
559.0447 9
559.1281 17
559.2114 13
559.2947 16
559.3781 14
559.4614 2
559.5448 16
559.6281 11
559.7114 11
559.7948 29
559.8781 6
559.9615 15
560.0448 11
560.1281 18
560.2115 10
560.2948 10
560.3782 12
560.4615 14
560.5448 6
560.6282 5
560.7115 12
560.7949 17
560.8782 34
560.9615 10
561.0449 16
561.1282 15
561.2116 5
561.2949 8
561.3782 16
561.4616 8
561.5449 2
561.6283 13
561.7116 17
561.7949 12
561.8783 7
561.9616 28
562.0450 10
562.1283 3
562.2116 3
562.2950 7
562.3783 6
562.4617 18
562.5450 32
562.6283 28
562.7117 13
562.7950 19
562.8784 2
562.9617 13
563.0450 2
563.1284 8
563.2117 19
563.2951 10
563.3784 18
563.4617 23
563.5451 8
563.6284 10
563.7118 3
563.7951 22
563.8784 9
563.9618 22
564.0451 14
564.1285 21
564.2118 9
564.2951 19
564.3785 17
564.4618 1
564.5452 8
564.6285 31
564.7118 4
564.7952 8
564.8785 10
564.9619 5
565.0452 14
565.1285 0
565.2119 3
565.2952 9
565.3786 27
565.4619 11
565.5452 4
565.6286 11
565.7119 4
565.7953 10
565.8786 11
565.9619 4
566.0453 13
566.1286 19
566.2120 16
566.2953 4
566.3786 11
566.4620 13
566.5453 14
566.6287 10
566.7120 10
566.7953 9
566.8787 9
566.9620 18
567.0454 22
567.1287 26
567.2120 5
567.2954 9
567.3787 16
567.4621 16
567.5454 14
567.6287 0
567.7121 5
567.7954 3
567.8788 6
567.9621 13
568.0454 4
568.1288 1
568.2121 26
568.2955 7
568.3788 10
568.4621 17
568.5455 11
568.6288 7
568.7122 0
568.7955 19
568.8788 25
568.9622 28
569.0455 3
569.1289 7
569.2122 8
569.2955 2
569.3789 8
569.4622 13
569.5456 14
569.6289 4
569.7122 15
569.7956 25
569.8789 15
569.9623 4
570.0456 12
570.1289 13
570.2123 9
570.2956 7
570.3790 4
570.4623 18
570.5456 4
570.6290 13
570.7123 0
570.7957 17
570.8790 4
570.9623 16
571.0457 6
571.1290 0
571.2124 4
571.2957 9
571.3790 14
571.4624 6
571.5457 17
571.6291 9
571.7124 4
571.7957 14
571.8791 14
571.9624 30
572.0458 13
572.1291 6
572.2124 3
572.2958 17
572.3791 18
572.4625 17
572.5458 11
572.6291 10
572.7125 6
572.7958 8
572.8792 3
572.9625 7
573.0458 10
573.1292 10
573.2125 9
573.2959 0
573.3792 7
573.4625 9
573.5459 0
573.6292 6
573.7126 16
573.7959 5
573.8792 0
573.9626 23
574.0459 12
574.1293 24
574.2126 10
574.2959 6
574.3793 6
574.4626 3
574.5460 8
574.6293 3
574.7126 5
574.7960 12
574.8793 1
574.9627 17
575.0460 15
575.1293 16
575.2127 12
575.2960 26
575.3794 16
575.4627 8
575.5460 11
575.6294 0
575.7127 3
575.7961 20
575.8794 14
575.9627 12
576.0461 23
576.1294 2
576.2128 7
576.2961 5
576.3794 9
576.4628 5
576.5461 4
576.6295 12
576.7128 1
576.7961 8
576.8795 20
576.9628 10
577.0462 0
577.1295 9
577.2128 8
577.2962 9
577.3795 12
577.4629 6
577.5462 10
577.6295 17
577.7129 9
577.7962 7
577.8796 16
577.9629 29
578.0462 12
578.1296 15
578.2129 29
578.2963 18
578.3796 25
578.4629 18
578.5463 8
578.6296 4
578.7130 12
578.7963 6
578.8796 2
578.9630 4
579.0463 33
579.1297 21
579.2130 3
579.2963 12
579.3797 13
579.4630 4
579.5464 19
579.6297 13
579.7130 24
579.7964 13
579.8797 12
579.9631 15
580.0464 16
580.1297 13
580.2131 8
580.2964 11
580.3798 10
580.4631 13
580.5464 19
580.6298 17
580.7131 7
580.7965 21
580.8798 11
580.9631 32
581.0465 1
581.1298 12
581.2132 6
581.2965 5
581.3798 17
581.4632 6
581.5465 4
581.6299 21
581.7132 20
581.7965 2
581.8799 23
581.9632 7
582.0466 6
582.1299 2
582.2132 6
582.2966 9
582.3799 0
582.4633 17
582.5466 10
582.6299 13
582.7133 5
582.7966 14
582.8800 5
582.9633 18
583.0466 19
583.1300 22
583.2133 7
583.2967 3
583.3800 14
583.4633 16
583.5467 9
583.6300 18
583.7134 12
583.7967 16
583.8800 17
583.9634 0
584.0467 6
584.1301 2
584.2134 6
584.2967 18
584.3801 17
584.4634 5
584.5468 12
584.6301 11
584.7134 37
584.7968 16
584.8801 19
584.9635 3
585.0468 13
585.1301 8
585.2135 4
585.2968 3
585.3802 5
585.4635 23
585.5468 8
585.6302 9
585.7135 24
585.7969 8
585.8802 1
585.9635 3
586.0469 8
586.1302 11
586.2136 10
586.2969 10
586.3802 10
586.4636 2
586.5469 2
586.6303 5
586.7136 5
586.7969 0
586.8803 12
586.9636 47
587.0470 3
587.1303 11
587.2136 4
587.2970 8
587.3803 20
587.4637 6
587.5470 2
587.6303 15
587.7137 7
587.7970 7
587.8804 16
587.9637 18
588.0470 15
588.1304 13
588.2137 2
588.2971 17
588.3804 35
588.4637 6
588.5471 16
588.6304 12
588.7138 19
588.7971 12
588.8804 6
588.9638 2
589.0471 8
589.1305 4
589.2138 6
589.2971 6
589.3805 9
589.4638 16
589.5472 14
589.6305 6
589.7138 23
589.7972 7
589.8805 8
589.9639 13
590.0472 17
590.1305 19
590.2139 23
590.2972 11
590.3806 16
590.4639 6
590.5472 5
590.6306 9
590.7139 4
590.7973 6
590.8806 14
590.9639 11
591.0473 0
591.1306 0
591.2140 25
591.2973 5
591.3806 7
591.4640 47
591.5473 17
591.6307 20
591.7140 15
591.7973 4
591.8807 5
591.9640 9
592.0474 5
592.1307 17
592.2140 14
592.2974 27
592.3807 1
592.4641 14
592.5474 13
592.6307 18
592.7141 25
592.7974 6
592.8808 7
592.9641 14
593.0474 16
593.1308 7
593.2141 15
593.2975 12
593.3808 22
593.4641 5
593.5475 9
593.6308 11
593.7142 26
593.7975 2
593.8808 8
593.9642 17
594.0475 9
594.1309 10
594.2142 2
594.2975 12
594.3809 11
594.4642 10
594.5476 4
594.6309 4
594.7142 16
594.7976 13
594.8809 14
594.9643 16
595.0476 15
595.1309 17
595.2143 3
595.2976 4
595.3810 32
595.4643 0
595.5476 8
595.6310 13
595.7143 22
595.7977 9
595.8810 3
595.9643 21
596.0477 9
596.1310 22
596.2144 30
596.2977 14
596.3810 6
596.4644 9
596.5477 2
596.6311 10
596.7144 5
596.7977 5
596.8811 2
596.9644 3
597.0478 3
597.1311 8
597.2144 37
597.2978 17
597.3811 24
597.4645 16
597.5478 31
597.6311 6
597.7145 13
597.7978 19
597.8812 13
597.9645 8
598.0478 33
598.1312 4
598.2145 9
598.2979 11
598.3812 15
598.4645 2
598.5479 2
598.6312 12
598.7146 7
598.7979 22
598.8812 9
598.9646 40
599.0479 17
599.1313 9
599.2146 22
599.2979 11
599.3813 32
599.4646 23
599.5480 15
599.6313 17
599.7146 11
599.7980 14
599.8813 1
599.9647 32
