0.0000 26
0.0833 63
0.1667 68
0.2500 49
0.3334 54
0.4167 76
0.5000 75
0.5834 55
0.6667 29
0.7501 46
0.8334 24
0.9167 33
1.0001 27
1.0834 29
1.1668 23
1.2501 53
1.3334 32
1.4168 31
1.5001 55
1.5835 49
1.6668 103
1.7501 15
1.8335 23
1.9168 71
2.0002 18
2.0835 51
2.1668 8
2.2502 121
2.3335 50
2.4169 39
2.5002 26
2.5835 63
2.6669 78
2.7502 26
2.8336 42
2.9169 21
3.0002 53
3.0836 66
3.1669 34
3.2503 39
3.3336 29
3.4169 71
3.5003 36
3.5836 40
3.6670 46
3.7503 58
3.8336 24
3.9170 32
4.0003 14
4.0837 48
4.1670 98
4.2503 41
4.3337 44
4.4170 85
4.5004 43
4.5837 65
4.6670 24
4.7504 105
4.8337 50
4.9171 30
5.0004 36
5.0837 50
5.1671 39
5.2504 15
5.3338 42
5.4171 60
5.5004 49
5.5838 101
5.6671 49
5.7505 63
5.8338 52
5.9171 63
6.0005 40
6.0838 40
6.1672 44
6.2505 38
6.3338 27
6.4172 44
6.5005 30
6.5839 43
6.6672 54
6.7505 87
6.8339 54
6.9172 30
7.0006 32
7.0839 19
7.1672 98
7.2506 48
7.3339 53
7.4173 69
7.5006 82
7.5839 52
7.6673 39
7.7506 57
7.8340 30
7.9173 31
8.0006 36
8.0840 49
8.1673 70
8.2507 39
8.3340 42
8.4173 63
8.5007 24
8.5840 29
8.6674 48
8.7507 23
8.8340 62
8.9174 29
9.0007 94
9.0841 28
9.1674 52
9.2507 57
9.3341 42
9.4174 42
9.5008 27
9.5841 53
9.6674 31
9.7508 36
9.8341 55
9.9175 39
10.0008 33
10.0841 21
10.1675 30
10.2508 78
10.3342 40
10.4175 11
10.5008 33
10.5842 32
10.6675 38
10.7509 61
10.8342 73
10.9175 49
11.0009 26
11.0842 45
11.1676 49
11.2509 69
11.3342 64
11.4176 29
11.5009 68
11.5843 32
11.6676 34
11.7509 44
11.8343 77
11.9176 65
12.0010 72
12.0843 56
12.1676 40
12.2510 32
12.3343 83
12.4177 26
12.5010 46
12.5843 39
12.6677 51
12.7510 53
12.8344 50
12.9177 76
13.0010 40
13.0844 46
13.1677 55
13.2511 33
13.3344 50
13.4177 25
13.5011 66
13.5844 62
13.6678 57
13.7511 53
13.8344 47
13.9178 25
14.0011 62
14.0845 65
14.1678 90
14.2511 34
14.3345 50
14.4178 29
14.5012 20
14.5845 57
14.6678 50
14.7512 42
14.8345 49
14.9179 45
15.0012 49
15.0845 41
15.1679 48
15.2512 61
15.3346 55
15.4179 46
15.5012 50
15.5846 50
15.6679 41
15.7513 79
15.8346 52
15.9179 45
16.0013 62
16.0846 71
16.1680 48
16.2513 70
16.3346 51
16.4180 46
16.5013 44
16.5847 22
16.6680 12
16.7513 17
16.8347 15
16.9180 33
17.0014 14
17.0847 11
17.1680 7
17.2514 5
17.3347 0
17.4181 3
17.5014 4
17.5847 12
17.6681 12
17.7514 12
17.8348 20
17.9181 12
18.0014 20
18.0848 7
18.1681 4
18.2515 12
18.3348 20
18.4181 7
18.5015 5
18.5848 18
18.6682 6
18.7515 55
18.8348 5
18.9182 15
19.0015 6
19.0849 17
19.1682 4
19.2515 7
19.3349 3
19.4182 7
19.5016 7
19.5849 4
19.6682 13
19.7516 19
19.8349 15
19.9183 7
20.0016 4
20.0849 4
20.1683 29
20.2516 7
20.3350 16
20.4183 23
20.5016 1
20.5850 273
20.6683 13
20.7517 10
20.8350 25
20.9183 24
21.0017 20
21.0850 21
21.1684 12
21.2517 29
21.3350 15
21.4184 14
21.5017 10
21.5851 23
21.6684 18
21.7517 6
21.8351 5
21.9184 6
22.0018 2
22.0851 7
22.1684 9
22.2518 21
22.3351 21
22.4185 21
22.5018 17
22.5851 11
22.6685 12
22.7518 19
22.8352 22
22.9185 61
23.0018 13
23.0852 1
23.1685 6
23.2519 30
23.3352 18
23.4185 9
23.5019 4
23.5852 12
23.6686 18
23.7519 17
23.8352 2
23.9186 7
24.0019 7
24.0853 9
24.1686 18
24.2519 2
24.3353 17
24.4186 20
24.5020 16
24.5853 14
24.6686 7
24.7520 15
24.8353 15
24.9187 4
25.0020 4
25.0853 10
25.1687 5
25.2520 10
25.3354 12
25.4187 25
25.5020 7
25.5854 0
25.6687 2
25.7521 29
25.8354 3
25.9187 2
26.0021 17
26.0854 21
26.1688 11
26.2521 14
26.3354 15
26.4188 52
26.5021 2
26.5855 12
26.6688 4
26.7521 5
26.8355 10
26.9188 6
27.0022 22
27.0855 4
27.1688 12
27.2522 21
27.3355 21
27.4189 6
27.5022 16
27.5855 19
27.6689 33
27.7522 9
27.8356 28
27.9189 15
28.0022 8
28.0856 2
28.1689 8
28.2523 17
28.3356 32
28.4189 10
28.5023 8
28.5856 5
28.6690 16
28.7523 2
28.8356 4
28.9190 20
29.0023 3
29.0857 16
29.1690 11
29.2523 9
29.3357 8
29.4190 1
29.5024 2
29.5857 17
29.6690 15
29.7524 6
29.8357 26
29.9191 18
30.0024 18
30.0857 16
30.1691 27
30.2524 2
30.3358 2
30.4191 8
30.5024 29
30.5858 8
30.6691 22
30.7525 14
30.8358 13
30.9191 13
31.0025 5
31.0858 6
31.1692 23
31.2525 9
31.3358 3
31.4192 17
31.5025 12
31.5859 12
31.6692 14
31.7525 13
31.8359 11
31.9192 17
32.0026 18
32.0859 22
32.1692 17
32.2526 9
32.3359 17
32.4193 6
32.5026 17
32.5859 11
32.6693 2
32.7526 12
32.8360 0
32.9193 13
33.0026 13
33.0860 3
33.1693 8
33.2527 11
33.3360 7
33.4193 30
33.5027 1
33.5860 9
33.6694 15
33.7527 5
33.8360 18
33.9194 24
34.0027 4
34.0861 11
34.1694 4
34.2527 17
34.3361 7
34.4194 7
34.5028 10
34.5861 2
34.6694 8
34.7528 7
34.8361 4
34.9195 11
35.0028 6
35.0861 14
35.1695 9
35.2528 14
35.3362 3
35.4195 14
35.5028 20
35.5862 18
35.6695 13
35.7529 2
35.8362 12
35.9195 19
36.0029 34
36.0862 19
36.1696 14
36.2529 6
36.3362 79
36.4196 18
36.5029 15
36.5863 9
36.6696 5
36.7529 6
36.8363 11
36.9196 7
37.0030 12
37.0863 12
37.1696 1
37.2530 6
37.3363 5
37.4197 119
37.5030 21
37.5863 6
37.6697 11
37.7530 0
37.8364 39
37.9197 10
38.0030 2
38.0864 14
38.1697 2
38.2531 8
38.3364 26
38.4197 11
38.5031 3
38.5864 13
38.6698 3
38.7531 14
38.8364 5
38.9198 2
39.0031 18
39.0865 20
39.1698 12
39.2531 20
39.3365 5
39.4198 2
39.5032 16
39.5865 7
39.6698 11
39.7532 7
39.8365 25
39.9199 5
40.0032 3
40.0865 3
40.1699 10
40.2532 24
40.3366 11
40.4199 27
40.5032 18
40.5866 7
40.6699 10
40.7533 20
40.8366 2
40.9199 5
41.0033 13
41.0866 3
41.1700 15
41.2533 9
41.3366 3
41.4200 7
41.5033 5
41.5867 11
41.6700 5
41.7533 12
41.8367 8
41.9200 0
42.0034 20
42.0867 14
42.1700 28
42.2534 14
42.3367 5
42.4201 11
42.5034 2
42.5867 10
42.6701 2
42.7534 19
42.8368 17
42.9201 2
43.0034 29
43.0868 25
43.1701 19
43.2535 8
43.3368 12
43.4201 7
43.5035 18
43.5868 5
43.6702 20
43.7535 6
43.8368 5
43.9202 9
44.0035 3
44.0869 11
44.1702 1
44.2535 4
44.3369 4
44.4202 14
44.5036 21
44.5869 18
44.6702 7
44.7536 11
44.8369 6
44.9203 8
45.0036 7
45.0869 22
45.1703 9
45.2536 19
45.3370 9
45.4203 3
45.5036 20
45.5870 19
45.6703 15
45.7537 14
45.8370 4
45.9203 20
46.0037 21
46.0870 11
46.1704 17
46.2537 37
46.3370 4
46.4204 12
46.5037 5
46.5871 14
46.6704 19
46.7537 8
46.8371 30
46.9204 9
47.0038 11
47.0871 8
47.1704 6
47.2538 11
47.3371 2
47.4205 21
47.5038 12
47.5871 11
47.6705 32
47.7538 19
47.8372 13
47.9205 6
48.0038 17
48.0872 33
48.1705 31
48.2539 3
48.3372 6
48.4205 6
48.5039 40
48.5872 12
48.6706 1
48.7539 28
48.8372 10
48.9206 11
49.0039 6
49.0873 4
49.1706 3
49.2539 11
49.3373 4
49.4206 4
49.5040 19
49.5873 2
49.6706 4
49.7540 10
49.8373 19
49.9207 37
50.0040 1
50.0873 15
50.1707 0
50.2540 9
50.3374 1
50.4207 1
50.5040 13
50.5874 26
50.6707 0
50.7541 8
50.8374 6
50.9207 13
51.0041 24
51.0874 5
51.1708 8
51.2541 19
51.3374 13
51.4208 9
51.5041 3
51.5875 15
51.6708 7
51.7541 1
51.8375 12
51.9208 15
52.0042 47
52.0875 10
52.1708 7
52.2542 2
52.3375 4
52.4209 10
52.5042 9
52.5875 12
52.6709 7
52.7542 29
52.8376 8
52.9209 14
53.0042 18
53.0876 2
53.1709 15
53.2543 22
53.3376 2
53.4209 5
53.5043 31
53.5876 6
53.6710 1
53.7543 15
53.8376 21
53.9210 12
54.0043 15
54.0877 4
54.1710 2
54.2543 9
54.3377 10
54.4210 14
54.5044 21
54.5877 22
54.6710 20
54.7544 15
54.8377 15
54.9211 20
55.0044 12
55.0877 7
55.1711 6
55.2544 5
55.3378 14
55.4211 7
55.5044 5
55.5878 18
55.6711 4
55.7545 8
55.8378 15
55.9211 10
56.0045 14
56.0878 4
56.1712 11
56.2545 3
56.3378 18
56.4212 14
56.5045 9
56.5879 9
56.6712 0
56.7545 7
56.8379 11
56.9212 12
57.0046 16
57.0879 27
57.1712 8
57.2546 11
57.3379 10
57.4213 4
57.5046 19
57.5879 9
57.6713 11
57.7546 54
57.8380 5
57.9213 30
58.0046 6
58.0880 3533
58.1713 7
58.2547 29
58.3380 43
58.4213 8
58.5047 26
58.5880 12
58.6714 13
58.7547 2
58.8380 11
58.9214 14
59.0047 21
59.0881 20
59.1714 15
59.2547 8
59.3381 8
59.4214 5
59.5048 7
59.5881 2
59.6714 15
59.7548 20
59.8381 4
59.9215 11
60.0048 21
60.0881 12
60.1715 12
60.2548 6
60.3382 9
60.4215 15
60.5048 8
60.5882 14
60.6715 5
60.7549 18
60.8382 14
60.9215 5
61.0049 2
61.0882 7
61.1716 1
61.2549 12
61.3382 4
61.4216 4
61.5049 26
61.5883 0
61.6716 9
61.7549 11
61.8383 14
61.9216 13
62.0050 4
62.0883 2
62.1716 6
62.2550 9
62.3383 5
62.4217 13
62.5050 13
62.5883 17
62.6717 37
62.7550 6
62.8384 3
62.9217 4
63.0050 2
63.0884 3
63.1717 5
63.2551 13
63.3384 8
63.4217 10
63.5051 23
63.5884 11
63.6718 5
63.7551 17
63.8384 11
63.9218 0
64.0051 21
64.0885 7
64.1718 15
64.2551 9
64.3385 15
64.4218 2
64.5052 5
64.5885 11
64.6718 11
64.7552 13
64.8385 34
64.9219 3
65.0052 7
65.0885 0
65.1719 11
65.2552 21
65.3386 1
65.4219 1
65.5052 2
65.5886 16
65.6719 2
65.7553 6
65.8386 14
65.9219 8
66.0053 14
66.0886 32
66.1720 22
66.2553 14
66.3386 14
66.4220 51
66.5053 0
66.5887 16
66.6720 10
66.7553 11
66.8387 15
66.9220 12
67.0054 23
67.0887 7
67.1720 20
67.2554 13
67.3387 8
67.4221 14
67.5054 38
67.5887 9
67.6721 10
67.7554 1
67.8388 20
67.9221 6
68.0054 55
68.0888 16
68.1721 3
68.2555 31
68.3388 6
68.4221 17
68.5055 9
68.5888 12
68.6722 6
68.7555 0
68.8388 4
68.9222 20
69.0055 7
69.0889 14
69.1722 23
69.2555 3
69.3389 14
69.4222 25
69.5056 10
69.5889 16
69.6722 7
69.7556 5
69.8389 4
69.9223 12
70.0056 30
70.0889 6
70.1723 19
70.2556 9
70.3390 31
70.4223 8
70.5056 0
70.5890 21
70.6723 9
70.7557 9
70.8390 18
70.9223 6
71.0057 33
71.0890 22
71.1724 10
71.2557 6
71.3390 2
71.4224 3
71.5057 14
71.5891 7
71.6724 11
71.7557 4
71.8391 6
71.9224 18
72.0058 2
72.0891 24
72.1724 2
72.2558 12
72.3391 14
72.4225 0
72.5058 4
72.5891 25
72.6725 8
72.7558 9
72.8392 11
72.9225 14
73.0058 5
73.0892 19
73.1725 15
73.2559 11
73.3392 12
73.4225 13
73.5059 0
73.5892 7
73.6726 7
73.7559 24
73.8392 19
73.9226 2
74.0059 0
74.0893 6
74.1726 8
74.2559 15
74.3393 5
74.4226 43
74.5060 20
74.5893 4
74.6726 10
74.7560 5
74.8393 16
74.9227 13
75.0060 3
75.0893 10
75.1727 13
75.2560 5
75.3394 3
75.4227 12
75.5060 5
75.5894 24
75.6727 19
75.7561 18
75.8394 32
75.9227 32
76.0061 2
76.0894 6
76.1728 13
76.2561 13
76.3394 26
76.4228 5
76.5061 2
76.5895 25
76.6728 15
76.7561 5
76.8395 30
76.9228 2
77.0062 27
77.0895 21
77.1728 4
77.2562 37
77.3395 2
77.4229 12
77.5062 13
77.5895 4
77.6729 6
77.7562 22
77.8396 9
77.9229 1
78.0062 28
78.0896 15
78.1729 21
78.2563 17
78.3396 19
78.4229 17
78.5063 12
78.5896 12
78.6730 16
78.7563 31
78.8396 15
78.9230 14
79.0063 21
79.0897 9
79.1730 12
79.2563 23
79.3397 13
79.4230 4
79.5064 19
79.5897 6
79.6730 12
79.7564 7
79.8397 8
79.9231 9
80.0064 11
80.0897 8
80.1731 23
80.2564 16
80.3398 15
80.4231 3
80.5064 7
80.5898 7
80.6731 6
80.7565 8
80.8398 39
80.9231 10
81.0065 12
81.0898 2
81.1732 8
81.2565 5
81.3398 3
81.4232 3
81.5065 8
81.5899 28
81.6732 7
81.7565 7
81.8399 17
81.9232 3
82.0066 32
82.0899 13
82.1732 18
82.2566 16
82.3399 1
82.4233 6
82.5066 16
82.5899 5
82.6733 11
82.7566 15
82.8400 6
82.9233 13
83.0066 17
83.0900 7
83.1733 22
83.2567 18
83.3400 12
83.4233 17
83.5067 33
83.5900 31
83.6734 12
83.7567 13
83.8400 15
83.9234 13
84.0067 22
84.0901 15
84.1734 10
84.2567 15
84.3401 3
84.4234 10
84.5068 15
84.5901 22
84.6734 4
84.7568 28
84.8401 25
84.9235 8
85.0068 12
85.0901 6
85.1735 15
85.2568 2
85.3402 6
85.4235 11
85.5068 7
85.5902 21
85.6735 9
85.7569 10
85.8402 20
85.9235 20
86.0069 4
86.0902 1
86.1736 2
86.2569 19
86.3402 15
86.4236 8
86.5069 9
86.5903 3
86.6736 8
86.7569 2
86.8403 28
86.9236 26
87.0070 4
87.0903 3
87.1736 11
87.2570 32
87.3403 10
87.4237 9
87.5070 6
87.5903 9
87.6737 19
87.7570 5
87.8404 6
87.9237 4
88.0070 6
88.0904 16
88.1737 15
88.2571 3
88.3404 1
88.4237 19
88.5071 18
88.5904 4
88.6738 22
88.7571 6
88.8404 3
88.9238 12
89.0071 14
89.0905 8
89.1738 14
89.2571 14
89.3405 4
89.4238 10
89.5072 17
89.5905 21
89.6738 33
89.7572 29
89.8405 20
89.9239 35
90.0072 10
90.0905 18
90.1739 43
90.2572 25
90.3406 50
90.4239 18
90.5072 25
90.5906 1
90.6739 26
90.7573 12
90.8406 11
90.9239 18
91.0073 12
91.0906 35
91.1740 9
91.2573 4
91.3406 14
91.4240 7
91.5073 10
91.5907 4
91.6740 0
91.7573 6
91.8407 11
91.9240 12
92.0074 18
92.0907 28
92.1740 20
92.2574 10
92.3407 22
92.4241 29
92.5074 14
92.5907 12
92.6741 2
92.7574 10
92.8408 17
92.9241 24
93.0074 6
93.0908 38
93.1741 19
93.2575 20
93.3408 12
93.4241 16
93.5075 12
93.5908 8
93.6742 8
93.7575 4
93.8408 14
93.9242 19
94.0075 7
94.0909 15
94.1742 2
94.2575 12
94.3409 16
94.4242 4
94.5076 23
94.5909 13
94.6742 5
94.7576 11
94.8409 11
94.9243 12
95.0076 6
95.0909 14
95.1743 27
95.2576 11
95.3410 8
95.4243 24
95.5076 5
95.5910 17
95.6743 8
95.7577 36
95.8410 46
95.9243 8
96.0077 24
96.0910 21
96.1744 12
96.2577 29
96.3410 6
96.4244 13
96.5077 14
96.5911 9
96.6744 0
96.7577 25
96.8411 11
96.9244 25
97.0078 8
97.0911 12
97.1744 5
97.2578 16
97.3411 22
97.4245 38
97.5078 3
97.5911 4
97.6745 8
97.7578 16
97.8412 23
97.9245 27
98.0078 19
98.0912 33
98.1745 3
98.2579 9
98.3412 5
98.4245 14
98.5079 14
98.5912 11
98.6746 9
98.7579 31
98.8412 13
98.9246 8
99.0079 6
99.0913 21
99.1746 1
99.2579 27
99.3413 9
99.4246 12
99.5080 2
99.5913 11
99.6746 5
99.7580 15
99.8413 35
99.9247 27
100.0080 5
100.0913 15
100.1747 3
100.2580 26
100.3414 36
100.4247 24
100.5080 8
100.5914 9
100.6747 16
100.7581 8
100.8414 9
100.9247 7
101.0081 13
101.0914 20
101.1748 4
101.2581 16
101.3414 11
101.4248 6
101.5081 9
101.5915 12
101.6748 17
101.7581 7
101.8415 9
101.9248 7
102.0082 21
102.0915 10
102.1748 9
102.2582 0
102.3415 16
102.4249 14
102.5082 34
102.5915 7
102.6749 20
102.7582 9
102.8416 2
102.9249 3
103.0082 9
103.0916 17
103.1749 31
103.2583 17
103.3416 13
103.4249 14
103.5083 14
103.5916 9
103.6750 19
103.7583 13
103.8416 6
103.9250 11
104.0083 9
104.0917 20
104.1750 2
104.2583 16
104.3417 22
104.4250 27
104.5084 22
104.5917 14
104.6750 34
104.7584 21
104.8417 18
104.9251 9
105.0084 4
105.0917 12
105.1751 20
105.2584 25
105.3418 22
105.4251 6
105.5084 18
105.5918 17
105.6751 28
105.7585 5
105.8418 14
105.9251 3
106.0085 13
106.0918 61
106.1752 27
106.2585 48
106.3418 46
106.4252 31
106.5085 10
106.5919 8
106.6752 4
106.7585 17
106.8419 15
106.9252 12
107.0086 19
107.0919 9
107.1752 15
107.2586 18
107.3419 24
107.4253 8
107.5086 22
107.5919 18
107.6753 61
107.7586 15
107.8420 8
107.9253 10
108.0086 1
108.0920 16
108.1753 27
108.2587 20
108.3420 12
108.4253 14
108.5087 7
108.5920 13
108.6754 20
108.7587 10
108.8420 20
108.9254 23
109.0087 12
109.0921 24
109.1754 25
109.2587 19
109.3421 5
109.4254 13
109.5088 28
109.5921 26
109.6754 11
109.7588 13
109.8421 12
109.9255 20
110.0088 21
110.0921 12
110.1755 24
110.2588 30
110.3422 6
110.4255 19
110.5088 11
110.5922 14
110.6755 2
110.7589 12
110.8422 5
110.9255 8
111.0089 11
111.0922 14
111.1756 23
111.2589 15
111.3422 23
111.4256 8
111.5089 7
111.5923 11
111.6756 11
111.7589 6
111.8423 22
111.9256 6
112.0090 14
112.0923 9
112.1756 12
112.2590 12
112.3423 27
112.4257 14
112.5090 41
112.5923 5
112.6757 17
112.7590 5
112.8424 36
112.9257 9
113.0090 9
113.0924 23
113.1757 7
113.2591 15
113.3424 27
113.4257 12
113.5091 20
113.5924 20
113.6758 7
113.7591 13
113.8424 17
113.9258 14
114.0091 18
114.0925 14
114.1758 10
114.2591 12
114.3425 23
114.4258 6
114.5092 14
114.5925 20
114.6758 6
114.7592 19
114.8425 12
114.9259 2
115.0092 16
115.0925 7
115.1759 16
115.2592 11
115.3426 19
115.4259 29
115.5092 14
115.5926 41
115.6759 22
115.7593 32
115.8426 17
115.9259 20
116.0093 18
116.0926 12
116.1760 17
116.2593 9
116.3426 13
116.4260 18
116.5093 41
116.5927 14
116.6760 19
116.7593 7
116.8427 32
116.9260 17
117.0094 16
117.0927 13
117.1760 20
117.2594 6
117.3427 20
117.4261 18
117.5094 22
117.5927 16
117.6761 11
117.7594 3
117.8428 17
117.9261 12
118.0094 10
118.0928 22
118.1761 8
118.2595 14
118.3428 12
118.4261 17
118.5095 12
118.5928 4
118.6762 10
118.7595 37
118.8428 46
118.9262 5
119.0095 3
119.0929 21
119.1762 21
119.2595 22
119.3429 6
119.4262 29
119.5096 22
119.5929 41
119.6762 6
119.7596 23
119.8429 11
119.9263 10
120.0096 1
120.0929 18
120.1763 13
120.2596 20
120.3430 20
120.4263 11
120.5096 3
120.5930 7
120.6763 0
120.7597 8
120.8430 9
120.9263 20
121.0097 16
121.0930 17
121.1764 11
121.2597 24
121.3430 16
121.4264 16
121.5097 10
121.5931 9
121.6764 5
121.7597 21
121.8431 13
121.9264 27
122.0098 17
122.0931 14
122.1764 29
122.2598 7
122.3431 9
122.4265 15
122.5098 7
122.5931 7
122.6765 22
122.7598 12
122.8432 22
122.9265 17
123.0098 15
123.0932 6
123.1765 13
123.2599 12
123.3432 3
123.4265 18
123.5099 9
123.5932 5
123.6766 11
123.7599 7
123.8432 3
123.9266 10
124.0099 7
124.0933 1
124.1766 10
124.2599 24
124.3433 10
124.4266 27
124.5100 11
124.5933 12
124.6766 12
124.7600 6
124.8433 23
124.9267 11
125.0100 8
125.0933 21
125.1767 20
125.2600 39
125.3434 13
125.4267 10
125.5100 18
125.5934 29
125.6767 7
125.7601 16
125.8434 23
125.9267 17
126.0101 7
126.0934 13
126.1768 16
126.2601 13
126.3434 16
126.4268 4
126.5101 16
126.5935 13
126.6768 12
126.7601 15
126.8435 15
126.9268 9
127.0102 25
127.0935 8
127.1768 18
127.2602 14
127.3435 2
127.4269 25
127.5102 23
127.5935 25
127.6769 33
127.7602 8
127.8436 8
127.9269 10
128.0102 27
128.0936 9
128.1769 10
128.2603 18
128.3436 17
128.4269 9
128.5103 6
128.5936 15
128.6770 10
128.7603 10
128.8436 25
128.9270 8
129.0103 10
129.0937 14
129.1770 19
129.2603 21
129.3437 20
129.4270 13
129.5104 26
129.5937 8
129.6770 18
129.7604 11
129.8437 22
129.9271 22
130.0104 24
130.0937 41
130.1771 29
130.2604 19
130.3438 39
130.4271 27
130.5104 28
130.5938 16
130.6771 28
130.7605 41
130.8438 43
130.9271 30
131.0105 56
131.0938 33
131.1772 24
131.2605 21
131.3438 50
131.4272 29
131.5105 16
131.5939 27
131.6772 29
131.7605 31
131.8439 43
131.9272 32
132.0106 43
132.0939 16
132.1772 33
132.2606 40
132.3439 41
132.4273 26
132.5106 14
132.5939 36
132.6773 25
132.7606 27
132.8440 19
132.9273 6
133.0106 6
133.0940 16
133.1773 29
133.2607 18
133.3440 20
133.4273 20
133.5107 15
133.5940 20
133.6774 24
133.7607 36
133.8440 13
133.9274 30
134.0107 25
134.0941 27
134.1774 4
134.2607 9
134.3441 2
134.4274 11
134.5108 11
134.5941 22
134.6774 7
134.7608 12
134.8441 31
134.9275 10
135.0108 19
135.0941 32
135.1775 8
135.2608 8
135.3442 22
135.4275 23
135.5108 2
135.5942 10
135.6775 18
135.7609 9
135.8442 19
135.9275 10
136.0109 26
136.0942 3
136.1776 21
136.2609 30
136.3442 4
136.4276 12
136.5109 27
136.5943 20
136.6776 13
136.7609 15
136.8443 20
136.9276 5
137.0110 31
137.0943 11
137.1776 22
137.2610 27
137.3443 18
137.4277 11
137.5110 25
137.5943 9
137.6777 7
137.7610 13
137.8444 7
137.9277 12
138.0110 16
138.0944 16
138.1777 21
138.2611 13
138.3444 23
138.4277 15
138.5111 7
138.5944 12
138.6778 10
138.7611 25
138.8444 1
138.9278 8
139.0111 30
139.0945 6
139.1778 5
139.2611 21
139.3445 3
139.4278 16
139.5112 5
139.5945 37
139.6778 32
139.7612 18
139.8445 40
139.9279 26
140.0112 46
140.0945 29
140.1779 15
140.2612 21
140.3446 6
140.4279 17
140.5112 20
140.5946 22
140.6779 33
140.7613 6
140.8446 22
140.9279 22
141.0113 9
141.0946 35
141.1780 12
141.2613 35
141.3446 46
141.4280 12
141.5113 30
141.5947 17
141.6780 31
141.7613 9
141.8447 21
141.9280 28
142.0114 7
142.0947 13
142.1780 25
142.2614 6
142.3447 26
142.4281 13
142.5114 22
142.5947 20
142.6781 15
142.7614 2
142.8448 8
142.9281 6
143.0114 14
143.0948 19
143.1781 15
143.2615 20
143.3448 31
143.4281 5
143.5115 14
143.5948 11
143.6782 9
143.7615 29
143.8448 17
143.9282 3
144.0115 15
144.0949 18
144.1782 27
144.2615 9
144.3449 19
144.4282 18
144.5116 13
144.5949 19
144.6782 20
144.7616 24
144.8449 11
144.9283 6
145.0116 8
145.0949 52
145.1783 6
145.2616 8
145.3450 6
145.4283 15
145.5116 10
145.5950 12
145.6783 15
145.7617 31
145.8450 16
145.9283 13
146.0117 18
146.0950 5
146.1784 12
146.2617 20
146.3450 26
146.4284 15
146.5117 15
146.5951 12
146.6784 31
146.7617 14
146.8451 18
146.9284 21
147.0118 25
147.0951 28
147.1784 19
147.2618 28
147.3451 18
147.4285 18
147.5118 24
147.5951 34
147.6785 25
147.7618 18
147.8452 12
147.9285 24
148.0118 35
148.0952 28
148.1785 21
148.2619 16
148.3452 14
148.4285 29
148.5119 22
148.5952 14
148.6786 24
148.7619 17
148.8452 9
148.9286 27
149.0119 11
149.0953 28
149.1786 13
149.2619 41
149.3453 17
149.4286 7
149.5120 17
149.5953 26
149.6786 11
149.7620 47
149.8453 10
149.9287 26
150.0120 14
150.0953 19
150.1787 17
150.2620 14
150.3454 10
150.4287 24
150.5120 14
150.5954 12
150.6787 23
150.7621 16
150.8454 15
150.9287 20
151.0121 14
151.0954 25
151.1788 31
151.2621 27
151.3454 33
151.4288 16
151.5121 20
151.5955 23
151.6788 26
151.7621 39
151.8455 29
151.9288 11
152.0122 39
152.0955 7
152.1788 25
152.2622 38
152.3455 13
152.4289 37
152.5122 6
152.5955 28
152.6789 18
152.7622 16
152.8456 13
152.9289 41
153.0122 30
153.0956 5
153.1789 21
153.2623 11
153.3456 21
153.4289 19
153.5123 16
153.5956 13
153.6790 17
153.7623 25
153.8456 13
153.9290 22
154.0123 12
154.0957 12
154.1790 8
154.2623 4
154.3457 6
154.4290 31
154.5124 18
154.5957 7
154.6790 22
154.7624 31
154.8457 6
154.9291 7
155.0124 7
155.0957 8
155.1791 6
155.2624 6
155.3458 6
155.4291 11
155.5124 6
155.5958 13
155.6791 5
155.7625 14
155.8458 22
155.9291 3
156.0125 25
156.0958 7
156.1792 19
156.2625 3
156.3458 9
156.4292 11
156.5125 28
156.5959 10
156.6792 10
156.7625 10
156.8459 28
156.9292 10
157.0126 16
157.0959 2
157.1792 15
157.2626 39
157.3459 6
157.4293 11
157.5126 7
157.5959 5
157.6793 29
157.7626 18
157.8460 38
157.9293 41
158.0126 29
158.0960 14
158.1793 28
158.2627 8
158.3460 12
158.4293 13
158.5127 24
158.5960 33
158.6794 17
158.7627 34
158.8460 21
158.9294 13
159.0127 6
159.0961 32
159.1794 16
159.2627 9
159.3461 12
159.4294 18
159.5128 15
159.5961 30
159.6794 33
159.7628 29
159.8461 27
159.9295 10
160.0128 8
160.0961 7
160.1795 13
160.2628 31
160.3462 27
160.4295 23
160.5128 36
160.5962 1
160.6795 7
160.7629 9
160.8462 10
160.9295 9
161.0129 12
161.0962 19
161.1796 24
161.2629 21
161.3462 12
161.4296 14
161.5129 13
161.5963 11
161.6796 25
161.7629 25
161.8463 11
161.9296 29
162.0130 12
162.0963 9
162.1796 6
162.2630 18
162.3463 20
162.4297 32
162.5130 18
162.5963 23
162.6797 21
162.7630 10
162.8464 23
162.9297 13
163.0130 13
163.0964 32
163.1797 17
163.2631 25
163.3464 10
163.4297 7
163.5131 14
163.5964 16
163.6798 16
163.7631 46
163.8464 23
163.9298 12
164.0131 20
164.0965 32
164.1798 16
164.2631 23
164.3465 11
164.4298 7
164.5132 7
164.5965 35
164.6798 17
164.7632 15
164.8465 14
164.9299 16
165.0132 22
165.0965 12
165.1799 52
165.2632 15
165.3466 16
165.4299 15
165.5132 21
165.5966 33
165.6799 34
165.7633 32
165.8466 28
165.9299 36
166.0133 21
166.0966 25
166.1800 28
166.2633 37
166.3466 29
166.4300 31
166.5133 33
166.5967 8
166.6800 23
166.7633 29
166.8467 23
166.9300 30
167.0134 29
167.0967 52
167.1800 11
167.2634 29
167.3467 23
167.4301 24
167.5134 21
167.5967 5
167.6801 17
167.7634 26
167.8468 11
167.9301 13
168.0134 34
168.0968 11
168.1801 34
168.2635 18
168.3468 11
168.4301 5
168.5135 6
168.5968 13
168.6802 15
168.7635 10
168.8468 26
168.9302 20
169.0135 16
169.0969 36
169.1802 56
169.2635 6
169.3469 28
169.4302 11
169.5136 43
169.5969 8
169.6802 36
169.7636 33
169.8469 44
169.9303 46
170.0136 23
170.0969 25
170.1803 29
170.2636 30
170.3470 44
170.4303 19
170.5136 23
170.5970 23
170.6803 30
170.7637 28
170.8470 27
170.9303 31
171.0137 39
171.0970 18
171.1804 26
171.2637 21
171.3470 23
171.4304 22
171.5137 11
171.5971 37
171.6804 41
171.7637 17
171.8471 9
171.9304 9
172.0138 16
172.0971 4
172.1804 12
172.2638 14
172.3471 26
172.4305 5
172.5138 9
172.5971 29
172.6805 12
172.7638 15
172.8472 38
172.9305 20
173.0138 38
173.0972 5
173.1805 6
173.2639 29
173.3472 0
173.4305 19
173.5139 18
173.5972 8
173.6806 27
173.7639 19
173.8472 67
173.9306 4
174.0139 13
174.0973 12
174.1806 32
174.2639 6
174.3473 9
174.4306 12
174.5140 19
174.5973 17
174.6806 6
174.7640 14
174.8473 18
174.9307 23
175.0140 5
175.0973 16
175.1807 7
175.2640 14
175.3474 16
175.4307 17
175.5140 9
175.5974 10
175.6807 2
175.7641 8
175.8474 22
175.9307 9
176.0141 22
176.0974 16
176.1808 33
176.2641 11
176.3474 25
176.4308 18
176.5141 22
176.5975 12
176.6808 12
176.7641 7
176.8475 10
176.9308 17
177.0142 13
177.0975 28
177.1808 9
177.2642 16
177.3475 32
177.4309 28
177.5142 8
177.5975 16
177.6809 8
177.7642 32
177.8476 3
177.9309 11
178.0142 31
178.0976 28
178.1809 9
178.2643 11
178.3476 19
178.4309 3
178.5143 26
178.5976 34
178.6810 13
178.7643 28
178.8476 15
178.9310 29
179.0143 23
179.0977 37
179.1810 20
179.2643 17
179.3477 42
179.4310 27
179.5144 67
179.5977 77
179.6810 28
179.7644 48
179.8477 20
179.9311 32
180.0144 17
180.0977 55
180.1811 14
180.2644 28
180.3478 16
180.4311 27
180.5144 25
180.5978 14
180.6811 38
180.7645 16
180.8478 17
180.9311 29
181.0145 6
181.0978 34
181.1812 52
181.2645 17
181.3478 13
181.4312 24
181.5145 13
181.5979 77
181.6812 14
181.7645 12
181.8479 41
181.9312 13
182.0146 24
182.0979 25
182.1812 10
182.2646 17
182.3479 27
182.4313 13
182.5146 19
182.5979 12
182.6813 16
182.7646 19
182.8480 17
182.9313 45
183.0146 1
183.0980 18
183.1813 37
183.2647 24
183.3480 11
183.4313 7
183.5147 11
183.5980 31
183.6814 13
183.7647 6
183.8480 19
183.9314 38
184.0147 12
184.0981 27
184.1814 20
184.2647 17
184.3481 12
184.4314 18
184.5148 6
184.5981 30
184.6814 22
184.7648 19
184.8481 5
184.9315 16
185.0148 11
185.0981 13
185.1815 1
185.2648 15
185.3482 30
185.4315 13
185.5148 13
185.5982 30
185.6815 9
185.7649 16
185.8482 7
185.9315 26
186.0149 17
186.0982 33
186.1816 11
186.2649 34
186.3482 32
186.4316 27
186.5149 28
186.5983 33
186.6816 11
186.7649 8
186.8483 25
186.9316 8
187.0150 6
187.0983 8
187.1816 8
187.2650 22
187.3483 2
187.4317 3
187.5150 22
187.5983 16
187.6817 48
187.7650 29
187.8484 30
187.9317 23
188.0150 29
188.0984 16
188.1817 11
188.2651 12
188.3484 17
188.4317 20
188.5151 21
188.5984 15
188.6818 20
188.7651 43
188.8484 63
188.9318 25
189.0151 30
189.0985 7
189.1818 10
189.2651 11
189.3485 21
189.4318 22
189.5152 9
189.5985 20
189.6818 16
189.7652 16
189.8485 3
189.9319 21
190.0152 9
190.0985 12
190.1819 6
190.2652 10
190.3486 15
190.4319 27
190.5152 14
190.5986 11
190.6819 28
190.7653 15
190.8486 19
190.9319 16
191.0153 27
191.0986 11
191.1820 30
191.2653 8
191.3486 11
191.4320 9
191.5153 33
191.5987 12
191.6820 31
191.7653 7
191.8487 29
191.9320 8
192.0154 14
192.0987 34
192.1820 21
192.2654 26
192.3487 18
192.4321 20
192.5154 50
192.5987 31
192.6821 21
192.7654 33
192.8488 11
192.9321 25
193.0154 19
193.0988 42
193.1821 19
193.2655 36
193.3488 30
193.4321 38
193.5155 22
193.5988 32
193.6822 31
193.7655 22
193.8488 27
193.9322 23
194.0155 35
194.0989 22
194.1822 8
194.2655 25
194.3489 37
194.4322 21
194.5156 41
194.5989 19
194.6822 11
194.7656 32
194.8489 25
194.9323 20
195.0156 40
195.0989 49
195.1823 18
195.2656 43
195.3490 16
195.4323 28
195.5156 25
195.5990 21
195.6823 19
195.7657 14
195.8490 29
195.9323 24
196.0157 47
196.0990 28
196.1824 46
196.2657 25
196.3490 14
196.4324 22
196.5157 21
196.5991 16
196.6824 23
196.7657 25
196.8491 19
196.9324 5
197.0158 16
197.0991 25
197.1824 22
197.2658 12
197.3491 37
197.4325 30
197.5158 25
197.5991 14
197.6825 20
197.7658 11
197.8492 46
197.9325 33
198.0158 9
198.0992 20
198.1825 10
198.2659 9
198.3492 28
198.4325 21
198.5159 22
198.5992 18
198.6826 31
198.7659 31
198.8492 33
198.9326 10
199.0159 16
199.0993 6
199.1826 9
199.2659 17
199.3493 18
199.4326 26
199.5160 31
199.5993 19
199.6826 21
199.7660 16
199.8493 11
199.9327 14
200.0160 28
200.0993 42
200.1827 19
200.2660 18
200.3494 13
200.4327 34
200.5160 28
200.5994 5
200.6827 12
200.7661 32
200.8494 10
200.9327 14
201.0161 2
201.0994 18
201.1828 28
201.2661 6
201.3494 10
201.4328 44
201.5161 8
201.5995 23
201.6828 38
201.7661 29
201.8495 7
201.9328 5
202.0162 11
202.0995 22
202.1828 21
202.2662 7
202.3495 27
202.4329 19
202.5162 18
202.5995 33
202.6829 12
202.7662 8
202.8496 21
202.9329 11
203.0162 9
203.0996 13
203.1829 17
203.2663 11
203.3496 23
203.4329 11
203.5163 14
203.5996 24
203.6830 11
203.7663 18
203.8496 3
203.9330 10
204.0163 28
204.0997 9
204.1830 28
204.2663 27
204.3497 29
204.4330 29
204.5164 20
204.5997 13
204.6830 11
204.7664 10
204.8497 16
204.9331 19
205.0164 19
205.0997 10
205.1831 19
205.2664 12
205.3498 26
205.4331 11
205.5164 17
205.5998 12
205.6831 12
205.7665 24
205.8498 16
205.9331 13
206.0165 17
206.0998 42
206.1832 13
206.2665 20
206.3498 23
206.4332 33
206.5165 9
206.5999 6
206.6832 23
206.7665 23
206.8499 32
206.9332 18
207.0166 16
207.0999 45
207.1832 25
207.2666 21
207.3499 23
207.4333 16
207.5166 15
207.5999 27
207.6833 38
207.7666 20
207.8500 17
207.9333 24
208.0166 22
208.1000 33
208.1833 24
208.2667 19
208.3500 36
208.4333 37
208.5167 27
208.6000 31
208.6834 28
208.7667 30
208.8500 23
208.9334 39
209.0167 45
209.1001 25
209.1834 31
209.2667 40
209.3501 39
209.4334 47
209.5168 33
209.6001 27
209.6834 35
209.7668 29
209.8501 42
209.9335 42
210.0168 44
210.1001 42
210.1835 50
210.2668 32
210.3502 33
210.4335 52
210.5168 44
210.6002 62
210.6835 53
210.7669 28
210.8502 61
210.9335 57
211.0169 30
211.1002 68
211.1836 54
211.2669 35
211.3502 51
211.4336 44
211.5169 53
211.6003 39
211.6836 44
211.7669 53
211.8503 63
211.9336 53
212.0170 45
212.1003 40
212.1836 56
212.2670 59
212.3503 42
212.4337 45
212.5170 57
212.6003 29
212.6837 51
212.7670 32
212.8504 27
212.9337 27
213.0170 34
213.1004 47
213.1837 42
213.2671 28
213.3504 23
213.4337 33
213.5171 55
213.6004 23
213.6838 40
213.7671 30
213.8504 28
213.9338 44
214.0171 16
214.1005 23
214.1838 14
214.2671 29
214.3505 13
214.4338 26
214.5172 25
214.6005 25
214.6838 7
214.7672 16
214.8505 18
214.9339 14
215.0172 18
215.1005 16
215.1839 22
215.2672 13
215.3506 18
215.4339 44
215.5172 10
215.6006 27
215.6839 21
215.7673 12
215.8506 31
215.9339 37
216.0173 10
216.1006 21
216.1840 8
216.2673 15
216.3506 33
216.4340 12
216.5173 35
216.6007 15
216.6840 19
216.7673 37
216.8507 13
216.9340 11
217.0174 12
217.1007 22
217.1840 19
217.2674 22
217.3507 15
217.4341 17
217.5174 52
217.6007 50
217.6841 26
217.7674 38
217.8508 37
217.9341 22
218.0174 6
218.1008 34
218.1841 32
218.2675 44
218.3508 41
218.4341 33
218.5175 27
218.6008 24
218.6842 18
218.7675 34
218.8508 41
218.9342 49
219.0175 55
219.1009 24
219.1842 31
219.2675 34
219.3509 37
219.4342 46
219.5176 36
219.6009 46
219.6842 32
219.7676 67
219.8509 28
219.9343 26
220.0176 27
220.1009 25
220.1843 20
220.2676 26
220.3510 31
220.4343 31
220.5176 20
220.6010 29
220.6843 25
220.7677 40
220.8510 46
220.9343 26
221.0177 10
221.1010 45
221.1844 36
221.2677 19
221.3510 30
221.4344 22
221.5177 23
221.6011 38
221.6844 9
221.7677 15
221.8511 10
221.9344 40
222.0178 28
222.1011 44
222.1844 40
222.2678 25
222.3511 25
222.4345 40
222.5178 32
222.6011 30
222.6845 27
222.7678 44
222.8512 32
222.9345 23
223.0178 13
223.1012 47
223.1845 8
223.2679 23
223.3512 26
223.4345 30
223.5179 33
223.6012 28
223.6846 21
223.7679 24
223.8512 27
223.9346 31
224.0179 26
224.1013 36
224.1846 15
224.2679 33
224.3513 26
224.4346 30
224.5180 31
224.6013 38
224.6846 49
224.7680 45
224.8513 18
224.9347 37
225.0180 34
225.1013 52
225.1847 42
225.2680 34
225.3514 66
225.4347 21
225.5180 38
225.6014 39
225.6847 50
225.7681 33
225.8514 48
225.9347 38
226.0181 57
226.1014 35
226.1848 75
226.2681 58
226.3514 38
226.4348 90
226.5181 37
226.6015 44
226.6848 45
226.7681 42
226.8515 70
226.9348 46
227.0182 50
227.1015 75
227.1848 55
227.2682 36
227.3515 59
227.4349 54
227.5182 63
227.6015 58
227.6849 45
227.7682 55
227.8516 48
227.9349 71
228.0182 54
228.1016 42
228.1849 56
228.2683 78
228.3516 39
228.4349 47
228.5183 79
228.6016 39
228.6850 50
228.7683 28
228.8516 25
228.9350 57
229.0183 36
229.1017 42
229.1850 45
229.2683 53
229.3517 16
229.4350 31
229.5184 37
229.6017 26
229.6850 29
229.7684 59
229.8517 34
229.9351 17
230.0184 25
230.1017 26
230.1851 4
230.2684 23
230.3518 27
230.4351 41
230.5184 33
230.6018 46
230.6851 22
230.7685 7
230.8518 18
230.9351 66
231.0185 29
231.1018 68
231.1852 17
231.2685 18
231.3518 16
231.4352 13
231.5185 35
231.6019 10
231.6852 43
231.7685 25
231.8519 31
231.9352 36
232.0186 36
232.1019 27
232.1852 32
232.2686 32
232.3519 38
232.4353 21
232.5186 21
232.6019 57
232.6853 30
232.7686 42
232.8520 19
232.9353 38
233.0186 31
233.1020 43
233.1853 26
233.2687 45
233.3520 27
233.4353 41
233.5187 51
233.6020 31
233.6854 53
233.7687 27
233.8520 38
233.9354 21
234.0187 30
234.1021 22
234.1854 34
234.2687 34
234.3521 43
234.4354 14
234.5188 23
234.6021 13
234.6854 9
234.7688 30
234.8521 24
234.9355 14
235.0188 23
235.1021 11
235.1855 24
235.2688 14
235.3522 16
235.4355 27
235.5188 34
235.6022 11
235.6855 25
235.7689 26
235.8522 10
235.9355 29
236.0189 13
236.1022 12
236.1856 51
236.2689 45
236.3522 15
236.4356 15
236.5189 32
236.6023 23
236.6856 55
236.7689 22
236.8523 29
236.9356 31
237.0190 31
237.1023 23
237.1856 32
237.2690 47
237.3523 18
237.4357 56
237.5190 9
237.6023 12
237.6857 44
237.7690 30
237.8524 14
237.9357 17
238.0190 19
238.1024 30
238.1857 35
238.2691 17
238.3524 42
238.4357 31
238.5191 39
238.6024 19
238.6858 6
238.7691 31
238.8524 16
238.9358 14
239.0191 25
239.1025 26
239.1858 15
239.2691 4
239.3525 12
239.4358 15
239.5192 20
239.6025 17
239.6858 18
239.7692 28
239.8525 16
239.9359 9
240.0192 23
240.1025 12
240.1859 15
240.2692 18
240.3526 37
240.4359 23
240.5192 23
240.6026 8
240.6859 10
240.7693 26
240.8526 39
240.9359 19
241.0193 22
241.1026 27
241.1860 36
241.2693 45
241.3526 51
241.4360 27
241.5193 26
241.6027 28
241.6860 22
241.7693 34
241.8527 51
241.9360 47
242.0194 34
242.1027 47
242.1860 27
242.2694 46
242.3527 43
242.4361 21
242.5194 22
242.6027 36
242.6861 33
242.7694 27
242.8528 69
242.9361 38
243.0194 43
243.1028 27
243.1861 63
243.2695 33
243.3528 19
243.4361 27
243.5195 48
243.6028 27
243.6862 31
243.7695 26
243.8528 40
243.9362 29
244.0195 24
244.1029 30
244.1862 27
244.2695 30
244.3529 33
244.4362 38
244.5196 40
244.6029 42
244.6862 53
244.7696 43
244.8529 43
244.9363 44
245.0196 28
245.1029 27
245.1863 41
245.2696 41
245.3530 42
245.4363 63
245.5196 35
245.6030 56
245.6863 49
245.7697 30
245.8530 33
245.9363 33
246.0197 33
246.1030 31
246.1864 28
246.2697 39
246.3530 29
246.4364 17
246.5197 41
246.6031 42
246.6864 28
246.7697 32
246.8531 5
246.9364 19
247.0198 25
247.1031 26
247.1864 25
247.2698 23
247.3531 27
247.4365 20
247.5198 8
247.6031 18
247.6865 35
247.7698 23
247.8532 28
247.9365 32
248.0198 27
248.1032 16
248.1865 34
248.2699 35
248.3532 23
248.4365 30
248.5199 45
248.6032 32
248.6866 61
248.7699 61
248.8532 40
248.9366 81
249.0199 52
249.1033 50
249.1866 57
249.2699 56
249.3533 55
249.4366 88
249.5200 55
249.6033 58
249.6866 60
249.7700 66
249.8533 73
249.9367 74
250.0200 66
250.1033 43
250.1867 55
250.2700 43
250.3534 48
250.4367 63
250.5200 77
250.6034 57
250.6867 62
250.7701 63
250.8534 80
250.9367 64
251.0201 35
251.1034 85
251.1868 50
251.2701 25
251.3534 43
251.4368 16
251.5201 24
251.6035 33
251.6868 12
251.7701 49
251.8535 35
251.9368 30
252.0202 27
252.1035 19
252.1868 8
252.2702 10
252.3535 36
252.4369 13
252.5202 22
252.6035 9
252.6869 17
252.7702 29
252.8536 13
252.9369 30
253.0202 22
253.1036 25
253.1869 24
253.2703 21
253.3536 20
253.4369 33
253.5203 32
253.6036 35
253.6870 21
253.7703 31
253.8536 44
253.9370 41
254.0203 18
254.1037 26
254.1870 46
254.2703 40
254.3537 60
254.4370 18
254.5204 40
254.6037 24
254.6870 36
254.7704 25
254.8537 40
254.9371 28
255.0204 25
255.1037 31
255.1871 30
255.2704 40
255.3538 21
255.4371 20
255.5204 27
255.6038 31
255.6871 7
255.7705 25
255.8538 28
255.9371 24
256.0205 17
256.1038 25
256.1872 35
256.2705 15
256.3538 11
256.4372 28
256.5205 25
256.6039 19
256.6872 21
256.7705 25
256.8539 30
256.9372 34
257.0206 10
257.1039 38
257.1872 33
257.2706 56
257.3539 16
257.4373 36
257.5206 29
257.6039 62
257.6873 44
257.7706 43
257.8540 67
257.9373 63
258.0206 40
258.1040 81
258.1873 89
258.2707 82
258.3540 56
258.4373 92
258.5207 136
258.6040 82
258.6874 119
258.7707 148
258.8540 133
258.9374 143
259.0207 170
259.1041 142
259.1874 156
259.2707 151
259.3541 158
259.4374 139
259.5208 176
259.6041 196
259.6874 186
259.7708 245
259.8541 230
259.9375 234
260.0208 208
260.1041 182
260.1875 210
260.2708 179
260.3542 184
260.4375 205
260.5208 201
260.6042 172
260.6875 181
260.7709 198
260.8542 169
260.9375 162
261.0209 146
261.1042 203
261.1876 108
261.2709 126
261.3542 135
261.4376 133
261.5209 90
261.6043 91
261.6876 91
261.7709 77
261.8543 49
261.9376 58
262.0210 67
262.1043 36
262.1876 26
262.2710 38
262.3543 15
262.4377 16
262.5210 12
262.6043 19
262.6877 11
262.7710 44
262.8544 29
262.9377 11
263.0210 24
263.1044 23
263.1877 23
263.2711 24
263.3544 24
263.4377 60
263.5211 32
263.6044 46
263.6878 38
263.7711 76
263.8544 48
263.9378 103
264.0211 85
264.1045 87
264.1878 94
264.2711 77
264.3545 81
264.4378 94
264.5212 85
264.6045 88
264.6878 110
264.7712 65
264.8545 78
264.9379 81
265.0212 89
265.1045 76
265.1879 58
265.2712 71
265.3546 55
265.4379 56
265.5212 51
265.6046 52
265.6879 33
265.7713 50
265.8546 31
265.9379 11
266.0213 46
266.1046 48
266.1880 26
266.2713 19
266.3546 23
266.4380 21
266.5213 28
266.6047 15
266.6880 9
266.7713 30
266.8547 33
266.9380 15
267.0214 17
267.1047 13
267.1880 36
267.2714 49
267.3547 17
267.4381 14
267.5214 19
267.6047 12
267.6881 10
267.7714 21
267.8548 31
267.9381 50
268.0214 17
268.1048 29
268.1881 17
268.2715 29
268.3548 38
268.4381 51
268.5215 21
268.6048 32
268.6882 43
268.7715 17
268.8548 17
268.9382 25
269.0215 15
269.1049 7
269.1882 20
269.2715 12
269.3549 25
269.4382 3
269.5216 36
269.6049 21
269.6882 30
269.7716 37
269.8549 35
269.9383 22
270.0216 25
270.1049 48
270.1883 50
270.2716 73
270.3550 75
270.4383 98
270.5216 91
270.6050 120
270.6883 86
270.7717 110
270.8550 158
270.9383 140
271.0217 167
271.1050 208
271.1884 210
271.2717 266
271.3550 203
271.4384 315
271.5217 267
271.6051 314
271.6884 296
271.7717 297
271.8551 330
271.9384 354
272.0218 341
272.1051 426
272.1884 407
272.2718 445
272.3551 420
272.4385 469
272.5218 442
272.6051 482
272.6885 450
272.7718 495
272.8552 434
272.9385 500
273.0218 432
273.1052 464
273.1885 487
273.2719 486
273.3552 461
273.4385 425
273.5219 484
273.6052 403
273.6886 413
273.7719 449
273.8552 477
273.9386 405
274.0219 374
274.1053 376
274.1886 308
274.2719 299
274.3553 325
274.4386 227
274.5220 276
274.6053 316
274.6886 226
274.7720 186
274.8553 214
274.9387 222
275.0220 164
275.1053 147
275.1887 115
275.2720 134
275.3554 139
275.4387 109
275.5220 125
275.6054 97
275.6887 78
275.7721 78
275.8554 86
275.9387 46
276.0221 77
276.1054 65
276.1888 54
276.2721 59
276.3554 29
276.4388 63
276.5221 50
276.6055 42
276.6888 32
276.7721 60
276.8555 81
276.9388 51
277.0222 51
277.1055 45
277.1888 61
277.2722 40
277.3555 39
277.4389 68
277.5222 91
277.6055 50
277.6889 46
277.7722 50
277.8556 65
277.9389 77
278.0222 65
278.1056 93
278.1889 73
278.2723 83
278.3556 62
278.4389 90
278.5223 70
278.6056 85
278.6890 109
278.7723 110
278.8556 108
278.9390 155
279.0223 100
279.1057 136
279.1890 137
279.2723 113
279.3557 146
279.4390 122
279.5224 182
279.6057 155
279.6890 206
279.7724 152
279.8557 237
279.9391 207
280.0224 232
280.1057 195
280.1891 241
280.2724 232
280.3558 285
280.4391 307
280.5224 302
280.6058 313
280.6891 315
280.7725 366
280.8558 364
280.9391 385
281.0225 359
281.1058 376
281.1892 359
281.2725 387
281.3558 385
281.4392 348
281.5225 359
281.6059 381
281.6892 384
281.7725 362
281.8559 362
281.9392 316
282.0226 330
282.1059 303
282.1892 357
282.2726 289
282.3559 280
282.4393 234
282.5226 219
282.6059 212
282.6893 176
282.7726 210
282.8560 166
282.9393 149
283.0226 137
283.1060 162
283.1893 124
283.2727 100
283.3560 82
283.4393 85
283.5227 60
283.6060 86
283.6894 82
283.7727 66
283.8560 46
283.9394 58
284.0227 66
284.1061 57
284.1894 77
284.2727 66
284.3561 118
284.4394 121
284.5228 117
284.6061 146
284.6894 160
284.7728 229
284.8561 166
284.9395 169
285.0228 192
285.1061 267
285.1895 287
285.2728 262
285.3562 274
285.4395 298
285.5228 331
285.6062 341
285.6895 362
285.7729 333
285.8562 353
285.9395 420
286.0229 385
286.1062 358
286.1896 462
286.2729 379
286.3562 378
286.4396 393
286.5229 331
286.6063 360
286.6896 389
286.7729 355
286.8563 395
286.9396 328
287.0230 300
287.1063 282
287.1896 228
287.2730 271
287.3563 256
287.4397 261
287.5230 230
287.6063 272
287.6897 242
287.7730 228
287.8564 249
287.9397 219
288.0230 275
288.1064 309
288.1897 276
288.2731 309
288.3564 304
288.4397 393
288.5231 378
288.6064 466
288.6898 466
288.7731 519
288.8564 582
288.9398 628
289.0231 707
289.1065 719
289.1898 815
289.2731 885
289.3565 999
289.4398 969
289.5232 1097
289.6065 1131
289.6898 1289
289.7732 1345
289.8565 1293
289.9399 1348
290.0232 1502
290.1065 1381
290.1899 1453
290.2732 1571
290.3566 1548
290.4399 1729
290.5232 1565
290.6066 1647
290.6899 1584
290.7733 1631
290.8566 1502
290.9399 1456
291.0233 1537
291.1066 1463
291.1900 1362
291.2733 1371
291.3566 1317
291.4400 1235
291.5233 1084
291.6067 1147
291.6900 987
291.7733 959
291.8567 841
291.9400 716
292.0234 628
292.1067 547
292.1900 435
292.2734 444
292.3567 245
292.4401 193
292.5234 153
292.6067 95
292.6901 72
292.7734 72
292.8568 63
292.9401 88
293.0234 106
293.1068 239
293.1901 243
293.2735 382
293.3568 526
293.4401 670
293.5235 850
293.6068 1076
293.6902 1350
293.7735 1747
293.8568 2002
293.9402 2402
294.0235 2788
294.1069 3164
294.1902 3587
294.2735 4094
294.3569 4568
294.4402 5178
294.5236 5648
294.6069 6171
294.6902 7037
294.7736 7761
294.8569 8262
294.9403 9013
295.0236 10040
295.1069 10407
295.1903 10974
295.2736 11916
295.3570 12712
295.4403 13697
295.5236 14199
295.6070 14924
295.6903 15731
295.7737 16511
295.8570 17395
295.9403 18219
296.0237 18560
296.1070 19123
296.1904 20815
296.2737 20753
296.3570 21718
296.4404 21782
296.5237 22752
296.6071 22749
296.6904 23709
296.7737 23724
296.8571 24038
296.9404 24741
297.0238 25569
297.1071 25167
297.1904 25408
297.2738 25418
297.3571 25723
297.4405 25129
297.5238 25779
297.6071 25597
297.6905 25295
297.7738 25271
297.8572 25023
297.9405 24959
298.0238 24824
298.1072 24237
298.1905 23747
298.2739 23489
298.3572 23539
298.4405 22622
298.5239 22394
298.6072 21650
298.6906 20626
298.7739 20558
298.8572 19974
298.9406 19373
299.0239 18712
299.1073 17645
299.1906 17274
299.2739 16452
299.3573 15557
299.4406 15126
299.5240 14285
299.6073 13785
299.6906 12752
299.7740 12087
299.8573 11575
299.9407 10630
300.0240 10337
300.1073 9434
300.1907 8739
300.2740 8020
300.3574 7376
300.4407 7018
300.5240 6417
300.6074 5755
300.6907 5159
300.7741 4667
300.8574 4441
300.9407 3787
301.0241 3342
301.1074 2915
301.1908 2548
301.2741 2206
301.3574 1954
301.4408 1742
301.5241 1433
301.6075 1079
301.6908 964
301.7741 745
301.8575 608
301.9408 522
302.0242 368
302.1075 273
302.1908 243
302.2742 170
302.3575 93
302.4409 99
302.5242 81
302.6075 83
302.6909 116
302.7742 125
302.8576 174
302.9409 240
303.0242 283
303.1076 375
303.1909 392
303.2743 575
303.3576 604
303.4409 666
303.5243 777
303.6076 805
303.6910 853
303.7743 951
303.8576 1033
303.9410 1260
304.0243 1150
304.1077 1201
304.1910 1440
304.2743 1288
304.3577 1417
304.4410 1512
304.5244 1460
304.6077 1660
304.6910 1661
304.7744 1590
304.8577 1688
304.9411 1745
305.0244 1684
305.1077 1608
305.1911 1616
305.2744 1616
305.3578 1633
305.4411 1597
305.5244 1605
305.6078 1581
305.6911 1507
305.7745 1492
305.8578 1400
305.9411 1373
306.0245 1391
306.1078 1365
306.1912 1311
306.2745 1206
306.3578 1235
306.4412 1158
306.5245 1198
306.6079 1050
306.6912 1087
306.7745 1171
306.8579 1018
306.9412 975
307.0246 940
307.1079 934
307.1912 873
307.2746 796
307.3579 785
307.4413 777
307.5246 757
307.6079 782
307.6913 726
307.7746 631
307.8580 618
307.9413 587
308.0246 630
308.1080 615
308.1913 616
308.2747 606
308.3580 595
308.4413 552
308.5247 538
308.6080 573
308.6914 467
308.7747 393
308.8580 431
308.9414 366
309.0247 351
309.1081 422
309.1914 351
309.2747 343
309.3581 289
309.4414 270
309.5248 285
309.6081 281
309.6914 283
309.7748 205
309.8581 216
309.9415 198
310.0248 197
310.1081 119
310.1915 126
310.2748 132
310.3582 71
310.4415 92
310.5248 57
310.6082 68
310.6915 67
310.7749 62
310.8582 54
310.9415 68
311.0249 55
311.1082 46
311.1916 75
311.2749 59
311.3582 32
311.4416 28
311.5249 37
311.6083 35
311.6916 51
311.7749 47
311.8583 50
311.9416 50
312.0250 48
312.1083 46
312.1916 52
312.2750 69
312.3583 51
312.4417 39
312.5250 59
312.6083 57
312.6917 66
312.7750 58
312.8584 54
312.9417 60
313.0250 53
313.1084 48
313.1917 52
313.2751 33
313.3584 21
313.4417 48
313.5251 32
313.6084 41
313.6918 24
313.7751 28
313.8584 35
313.9418 25
314.0251 17
314.1085 29
314.1918 55
314.2751 37
314.3585 66
314.4418 68
314.5252 63
314.6085 70
314.6918 83
314.7752 80
314.8585 113
314.9419 135
315.0252 107
315.1085 171
315.1919 197
315.2752 176
315.3586 219
315.4419 212
315.5252 238
315.6086 241
315.6919 334
315.7753 306
315.8586 339
315.9419 322
316.0253 387
316.1086 368
316.1920 374
316.2753 409
316.3586 503
316.4420 481
316.5253 563
316.6087 495
316.6920 517
316.7753 483
316.8587 499
316.9420 523
317.0254 525
317.1087 512
317.1920 516
317.2754 449
317.3587 512
317.4421 481
317.5254 505
317.6087 427
317.6921 425
317.7754 378
317.8588 328
317.9421 318
318.0254 314
318.1088 274
318.1921 285
318.2755 270
318.3588 237
318.4421 223
318.5255 185
318.6088 185
318.6922 160
318.7755 154
318.8588 100
318.9422 135
319.0255 78
319.1089 70
319.1922 75
319.2755 44
319.3589 71
319.4422 28
319.5256 34
319.6089 18
319.6922 21
319.7756 24
319.8589 38
319.9423 24
320.0256 29
320.1089 25
320.1923 49
320.2756 99
320.3590 82
320.4423 90
320.5256 99
320.6090 116
320.6923 95
320.7757 141
320.8590 190
320.9423 175
321.0257 188
321.1090 198
321.1924 188
321.2757 180
321.3590 168
321.4424 256
321.5257 281
321.6091 254
321.6924 223
321.7757 249
321.8591 261
321.9424 265
322.0258 293
322.1091 270
322.1924 268
322.2758 278
322.3591 248
322.4425 272
322.5258 238
322.6091 246
322.6925 224
322.7758 233
322.8592 196
322.9425 212
323.0258 202
323.1092 149
323.1925 147
323.2759 178
323.3592 135
323.4425 121
323.5259 154
323.6092 72
323.6926 82
323.7759 82
323.8592 49
323.9426 49
324.0259 65
324.1093 65
324.1926 40
324.2759 26
324.3593 58
324.4426 14
324.5260 35
324.6093 21
324.6926 21
324.7760 22
324.8593 7
324.9427 22
325.0260 16
325.1093 42
325.1927 39
325.2760 35
325.3594 48
325.4427 39
325.5260 33
325.6094 72
325.6927 66
325.7761 70
325.8594 88
325.9427 74
326.0261 100
326.1094 119
326.1928 140
326.2761 164
326.3594 141
326.4428 142
326.5261 179
326.6095 149
326.6928 141
326.7761 145
326.8595 216
326.9428 184
327.0262 183
327.1095 172
327.1928 225
327.2762 184
327.3595 226
327.4429 197
327.5262 203
327.6095 207
327.6929 250
327.7762 198
327.8596 190
327.9429 232
328.0262 190
328.1096 202
328.1929 179
328.2763 171
328.3596 202
328.4429 178
328.5263 201
328.6096 185
328.6930 214
328.7763 142
328.8596 160
328.9430 141
329.0263 162
329.1097 129
329.1930 133
329.2763 118
329.3597 140
329.4430 106
329.5264 132
329.6097 121
329.6930 100
329.7764 101
329.8597 77
329.9431 65
330.0264 75
330.1097 64
330.1931 44
330.2764 53
330.3598 46
330.4431 48
330.5264 51
330.6098 32
330.6931 33
330.7765 26
330.8598 46
330.9431 22
331.0265 35
331.1098 23
331.1932 26
331.2765 48
331.3598 23
331.4432 45
331.5265 13
331.6099 51
331.6932 18
331.7765 43
331.8599 19
331.9432 20
332.0266 50
332.1099 38
332.1932 40
332.2766 29
332.3599 58
332.4433 36
332.5266 77
332.6099 57
332.6933 50
332.7766 41
332.8600 64
332.9433 61
333.0266 60
333.1100 59
333.1933 89
333.2767 53
333.3600 113
333.4433 91
333.5267 67
333.6100 112
333.6934 88
333.7767 115
333.8600 101
333.9434 99
334.0267 115
334.1101 123
334.1934 120
334.2767 139
334.3601 147
334.4434 133
334.5268 182
334.6101 154
334.6934 180
334.7768 208
334.8601 166
334.9435 186
335.0268 166
335.1101 165
335.1935 172
335.2768 200
335.3602 213
335.4435 198
335.5268 165
335.6102 228
335.6935 175
335.7769 213
335.8602 188
335.9435 158
336.0269 176
336.1102 153
336.1936 151
336.2769 160
336.3602 131
336.4436 148
336.5269 125
336.6103 79
336.6936 113
336.7769 118
336.8603 124
336.9436 90
337.0270 46
337.1103 67
337.1936 72
337.2770 43
337.3603 53
337.4437 32
337.5270 49
337.6103 57
337.6937 36
337.7770 28
337.8604 40
337.9437 22
338.0270 52
338.1104 47
338.1937 39
338.2771 54
338.3604 43
338.4437 46
338.5271 51
338.6104 76
338.6938 55
338.7771 61
338.8604 62
338.9438 72
339.0271 113
339.1105 119
339.1938 105
339.2771 149
339.3605 121
339.4438 174
339.5272 146
339.6105 126
339.6938 172
339.7772 161
339.8605 137
339.9439 152
340.0272 167
340.1105 212
340.1939 181
340.2772 158
340.3606 173
340.4439 158
340.5272 178
340.6106 203
340.6939 187
340.7773 174
340.8606 159
340.9439 146
341.0273 153
341.1106 110
341.1940 117
341.2773 111
341.3606 93
341.4440 88
341.5273 104
341.6107 79
341.6940 85
341.7773 87
341.8607 70
341.9440 76
342.0274 49
342.1107 85
342.1940 49
342.2774 60
342.3607 72
342.4441 81
342.5274 52
342.6107 79
342.6941 73
342.7774 91
342.8608 81
342.9441 139
343.0274 125
343.1108 126
343.1941 114
343.2775 140
343.3608 152
343.4441 183
343.5275 189
343.6108 142
343.6942 192
343.7775 214
343.8608 212
343.9442 224
344.0275 205
344.1109 173
344.1942 221
344.2775 215
344.3609 248
344.4442 205
344.5276 212
344.6109 224
344.6942 242
344.7776 200
344.8609 213
344.9443 222
345.0276 189
345.1109 193
345.1943 183
345.2776 124
345.3610 135
345.4443 147
345.5276 128
345.6110 110
345.6943 143
345.7777 103
345.8610 103
345.9443 114
346.0277 79
346.1110 78
346.1944 56
346.2777 60
346.3610 52
346.4444 44
346.5277 43
346.6111 43
346.6944 34
346.7777 42
346.8611 29
346.9444 25
347.0278 66
347.1111 18
347.1944 29
347.2778 25
347.3611 45
347.4445 45
347.5278 30
347.6111 41
347.6945 69
347.7778 41
347.8612 46
347.9445 49
348.0278 57
348.1112 58
348.1945 58
348.2779 71
348.3612 67
348.4445 59
348.5279 44
348.6112 88
348.6946 78
348.7779 97
348.8612 95
348.9446 93
349.0279 58
349.1113 70
349.1946 51
349.2779 66
349.3613 80
349.4446 76
349.5280 87
349.6113 60
349.6946 62
349.7780 51
349.8613 51
349.9447 61
350.0280 54
350.1113 58
350.1947 80
350.2780 71
350.3614 96
350.4447 68
350.5280 51
350.6114 51
350.6947 62
350.7781 74
350.8614 92
350.9447 80
351.0281 70
351.1114 81
351.1948 74
351.2781 85
351.3614 113
351.4448 98
351.5281 99
351.6115 110
351.6948 102
351.7781 117
351.8615 130
351.9448 129
352.0282 144
352.1115 151
352.1948 129
352.2782 159
352.3615 137
352.4449 194
352.5282 179
352.6115 148
352.6949 132
352.7782 210
352.8616 150
352.9449 160
353.0282 163
353.1116 156
353.1949 117
353.2783 174
353.3616 149
353.4449 147
353.5283 128
353.6116 180
353.6950 120
353.7783 131
353.8616 133
353.9450 110
354.0283 74
354.1117 99
354.1950 94
354.2783 146
354.3617 91
354.4450 47
354.5284 84
354.6117 48
354.6950 45
354.7784 56
354.8617 55
354.9451 32
355.0284 38
355.1117 24
355.1951 44
355.2784 36
355.3618 27
355.4451 24
355.5284 18
355.6118 24
355.6951 37
355.7785 30
355.8618 49
355.9451 29
356.0285 50
356.1118 52
356.1952 47
356.2785 60
356.3618 89
356.4452 59
356.5285 50
356.6119 77
356.6952 75
356.7785 98
356.8619 44
356.9452 78
357.0286 109
357.1119 104
357.1952 87
357.2786 89
357.3619 72
357.4453 70
357.5286 97
357.6119 115
357.6953 114
357.7786 71
357.8620 104
357.9453 124
358.0286 82
358.1120 108
358.1953 70
358.2787 76
358.3620 67
358.4453 65
358.5287 60
358.6120 88
358.6954 85
358.7787 69
358.8620 59
358.9454 34
359.0287 44
359.1121 40
359.1954 46
359.2787 49
359.3621 22
359.4454 43
359.5288 23
359.6121 13
359.6954 10
359.7788 10
359.8621 22
359.9455 11
360.0288 14
360.1121 12
360.1955 19
360.2788 8
360.3622 26
360.4455 27
360.5288 15
360.6122 66
360.6955 18
360.7789 26
360.8622 15
360.9455 24
361.0289 38
361.1122 20
361.1956 22
361.2789 55
361.3622 34
361.4456 33
361.5289 20
361.6123 34
361.6956 43
361.7789 34
361.8623 44
361.9456 30
362.0290 30
362.1123 36
362.1956 25
362.2790 30
362.3623 25
362.4457 27
362.5290 23
362.6123 25
362.6957 69
362.7790 34
362.8624 23
362.9457 25
363.0290 34
363.1124 13
363.1957 21
363.2791 25
363.3624 16
363.4457 13
363.5291 18
363.6124 15
363.6958 21
363.7791 28
363.8624 15
363.9458 12
364.0291 13
364.1125 25
364.1958 15
364.2791 43
364.3625 19
364.4458 23
364.5292 26
364.6125 14
364.6958 44
364.7792 26
364.8625 29
364.9459 35
365.0292 40
365.1125 36
365.1959 38
365.2792 66
365.3626 35
365.4459 107
365.5292 43
365.6126 78
365.6959 56
365.7793 44
365.8626 77
365.9459 67
366.0293 50
366.1126 66
366.1960 49
366.2793 64
366.3626 59
366.4460 57
366.5293 53
366.6127 69
366.6960 53
366.7793 64
366.8627 59
366.9460 32
367.0294 37
367.1127 46
367.1960 43
367.2794 53
367.3627 45
367.4461 47
367.5294 54
367.6127 45
367.6961 39
367.7794 66
367.8628 39
367.9461 42
368.0294 28
368.1128 32
368.1961 35
368.2795 19
368.3628 29
368.4461 44
368.5295 35
368.6128 25
368.6962 29
368.7795 25
368.8628 19
368.9462 17
369.0295 29
369.1129 32
369.1962 19
369.2795 64
369.3629 42
369.4462 40
369.5296 44
369.6129 53
369.6962 44
369.7796 39
369.8629 31
369.9463 95
370.0296 61
370.1129 64
370.1963 34
370.2796 67
370.3630 74
370.4463 60
370.5296 68
370.6130 86
370.6963 62
370.7797 83
370.8630 71
370.9463 82
371.0297 94
371.1130 68
371.1964 77
371.2797 64
371.3630 68
371.4464 62
371.5297 60
371.6131 65
371.6964 54
371.7797 51
371.8631 42
371.9464 69
372.0298 40
372.1131 66
372.1964 43
372.2798 59
372.3631 22
372.4465 23
372.5298 27
372.6131 25
372.6965 15
372.7798 38
372.8632 9
372.9465 12
373.0298 11
373.1132 7
373.1965 10
373.2799 6
373.3632 25
373.4465 18
373.5299 23
373.6132 9
373.6966 22
373.7799 11
373.8632 11
373.9466 24
374.0299 14
374.1133 8
374.1966 17
374.2799 32
374.3633 16
374.4466 42
374.5300 13
374.6133 26
374.6966 30
374.7800 46
374.8633 21
374.9467 40
375.0300 50
375.1133 39
375.1967 65
375.2800 36
375.3634 24
375.4467 37
375.5300 35
375.6134 48
375.6967 49
375.7801 41
375.8634 62
375.9467 75
376.0301 30
376.1134 39
376.1968 41
376.2801 60
376.3634 70
376.4468 58
376.5301 72
376.6135 56
376.6968 61
376.7801 53
376.8635 35
376.9468 33
377.0302 48
377.1135 32
377.1968 20
377.2802 66
377.3635 48
377.4469 41
377.5302 25
377.6135 30
377.6969 33
377.7802 35
377.8636 35
377.9469 23
378.0302 42
378.1136 37
378.1969 54
378.2803 25
378.3636 58
378.4469 54
378.5303 50
378.6136 36
378.6970 39
378.7803 45
378.8636 33
378.9470 63
379.0303 96
379.1137 55
379.1970 66
379.2803 47
379.3637 381
379.4470 624
379.5304 489
379.6137 362
379.6970 341
379.7804 264
379.8637 351
379.9471 298
380.0304 148
380.1137 254
380.1971 289
380.2804 328
380.3638 275
380.4471 259
380.5304 249
380.6138 175
380.6971 157
380.7805 211
380.8638 241
380.9471 209
381.0305 186
381.1138 182
381.1972 216
381.2805 154
381.3638 129
381.4472 171
381.5305 104
381.6139 116
381.6972 164
381.7805 110
381.8639 159
381.9472 171
382.0306 81
382.1139 146
382.1972 106
382.2806 123
382.3639 97
382.4473 98
382.5306 94
382.6139 128
382.6973 72
382.7806 152
382.8640 132
382.9473 94
383.0306 148
383.1140 117
383.1973 96
383.2807 117
383.3640 114
383.4473 124
383.5307 165
383.6140 172
383.6974 100
383.7807 170
383.8640 109
383.9474 177
384.0307 79
384.1141 129
384.1974 91
384.2807 135
384.3641 98
384.4474 154
384.5308 111
384.6141 150
384.6974 153
384.7808 100
384.8641 105
384.9475 105
385.0308 143
385.1141 119
385.1975 129
385.2808 92
385.3642 164
385.4475 84
385.5308 107
385.6142 100
385.6975 77
385.7809 61
385.8642 64
385.9475 113
386.0309 64
386.1142 92
386.1976 86
386.2809 76
386.3642 128
386.4476 42
386.5309 55
386.6143 96
386.6976 94
386.7809 66
386.8643 58
386.9476 104
387.0310 58
387.1143 105
387.1976 90
387.2810 70
387.3643 171
387.4477 68
387.5310 89
387.6143 102
387.6977 102
387.7810 108
387.8644 92
387.9477 127
388.0310 110
388.1144 163
388.1977 144
388.2811 144
388.3644 159
388.4477 126
388.5311 186
388.6144 128
388.6978 120
388.7811 132
388.8644 167
388.9478 140
389.0311 118
389.1145 122
389.1978 135
389.2811 123
389.3645 175
389.4478 115
389.5312 108
389.6145 134
389.6978 137
389.7812 61
389.8645 131
389.9479 110
390.0312 145
390.1145 90
390.1979 92
390.2812 113
390.3646 89
390.4479 97
390.5312 51
390.6146 48
390.6979 54
390.7813 57
390.8646 74
390.9479 81
391.0313 147
391.1146 115
391.1980 119
391.2813 101
391.3646 114
391.4480 106
391.5313 140
391.6147 94
391.6980 100
391.7813 122
391.8647 99
391.9480 99
392.0314 162
392.1147 106
392.1980 175
392.2814 125
392.3647 151
392.4481 121
392.5314 166
392.6147 148
392.6981 151
392.7814 167
392.8648 158
392.9481 154
393.0314 137
393.1148 148
393.1981 144
393.2815 145
393.3648 203
393.4481 135
393.5315 151
393.6148 107
393.6982 155
393.7815 128
393.8648 122
393.9482 128
394.0315 144
394.1149 108
394.1982 119
394.2815 99
394.3649 158
394.4482 118
394.5316 102
394.6149 119
394.6982 91
394.7816 140
394.8649 100
394.9483 109
395.0316 79
395.1149 130
395.1983 85
395.2816 83
395.3650 80
395.4483 83
395.5316 73
395.6150 114
395.6983 42
395.7817 76
395.8650 49
395.9483 79
396.0317 97
396.1150 58
396.1984 66
396.2817 93
396.3650 66
396.4484 61
396.5317 95
396.6151 63
396.6984 80
396.7817 57
396.8651 67
396.9484 74
397.0318 118
397.1151 133
397.1984 85
397.2818 93
397.3651 77
397.4485 136
397.5318 88
397.6151 89
397.6985 111
397.7818 102
397.8652 108
397.9485 61
398.0318 85
398.1152 115
398.1985 138
398.2819 147
398.3652 73
398.4485 115
398.5319 119
398.6152 67
398.6986 107
398.7819 106
398.8652 100
398.9486 91
399.0319 99
399.1153 65
399.1986 128
399.2819 84
399.3653 105
399.4486 50
399.5320 72
399.6153 40
399.6986 65
399.7820 86
399.8653 63
399.9487 49
400.0320 57
400.1153 77
400.1987 60
400.2820 55
400.3654 64
400.4487 53
400.5320 65
400.6154 68
400.6987 46
400.7821 67
400.8654 97
400.9487 79
401.0321 40
401.1154 50
401.1988 45
401.2821 96
401.3654 56
401.4488 63
401.5321 98
401.6155 52
401.6988 57
401.7821 66
401.8655 67
401.9488 62
402.0322 66
402.1155 75
402.1988 90
402.2822 72
402.3655 78
402.4489 43
402.5322 63
402.6155 88
402.6989 109
402.7822 60
402.8656 88
402.9489 74
403.0322 127
403.1156 85
403.1989 145
403.2823 83
403.3656 81
403.4489 93
403.5323 54
403.6156 60
403.6990 32
403.7823 40
403.8656 57
403.9490 79
404.0323 86
404.1157 47
404.1990 72
404.2823 54
404.3657 47
404.4490 43
404.5324 64
404.6157 71
404.6990 72
404.7824 67
404.8657 46
404.9491 100
405.0324 23
405.1157 62
405.1991 40
405.2824 52
405.3658 68
405.4491 53
405.5324 42
405.6158 75
405.6991 74
405.7825 59
405.8658 28
405.9491 44
406.0325 58
406.1158 90
406.1992 53
406.2825 67
406.3658 49
406.4492 45
406.5325 54
406.6159 55
406.6992 84
406.7825 44
406.8659 81
406.9492 70
407.0326 47
407.1159 69
407.1992 54
407.2826 142
407.3659 96
407.4493 60
407.5326 66
407.6159 91
407.6993 105
407.7826 112
407.8660 75
407.9493 81
408.0326 55
408.1160 85
408.1993 69
408.2827 106
408.3660 50
408.4493 64
408.5327 73
408.6160 110
408.6994 78
408.7827 26
408.8660 61
408.9494 33
409.0327 45
409.1161 41
409.1994 51
409.2827 56
409.3661 40
409.4494 66
409.5328 23
409.6161 28
409.6994 24
409.7828 41
409.8661 36
409.9495 75
410.0328 50
410.1161 59
410.1995 83
410.2828 48
410.3662 46
410.4495 60
410.5328 94
410.6162 45
410.6995 71
410.7829 45
410.8662 88
410.9495 66
411.0329 74
411.1162 60
411.1996 66
411.2829 74
411.3662 38
411.4496 39
411.5329 87
411.6163 43
411.6996 62
411.7829 60
411.8663 74
411.9496 56
412.0330 75
412.1163 46
412.1996 25
412.2830 40
412.3663 55
412.4497 62
412.5330 52
412.6163 89
412.6997 49
412.7830 47
412.8664 45
412.9497 54
413.0330 45
413.1164 47
413.1997 56
413.2831 23
413.3664 52
413.4497 32
413.5331 42
413.6164 56
413.6998 57
413.7831 48
413.8664 46
413.9498 62
414.0331 27
414.1165 78
414.1998 122
414.2831 27
414.3665 63
414.4498 38
414.5332 41
414.6165 78
414.6998 43
414.7832 63
414.8665 71
414.9499 37
415.0332 90
415.1165 83
415.1999 37
415.2832 37
415.3666 51
415.4499 59
415.5332 61
415.6166 60
415.6999 72
415.7833 48
415.8666 70
415.9499 63
416.0333 63
416.1166 50
416.2000 73
416.2833 86
416.3666 42
416.4500 80
416.5333 58
416.6167 58
416.7000 35
416.7833 90
416.8667 56
416.9500 29
417.0334 95
417.1167 44
417.2000 43
417.2834 56
417.3667 52
417.4501 42
417.5334 34
417.6167 72
417.7001 54
417.7834 34
417.8668 51
417.9501 64
418.0334 46
418.1168 87
418.2001 54
418.2835 57
418.3668 60
418.4501 85
418.5335 90
418.6168 96
418.7002 82
418.7835 76
418.8668 81
418.9502 97
419.0335 71
419.1169 102
419.2002 100
419.2835 106
419.3669 97
419.4502 87
419.5336 111
419.6169 90
419.7002 55
419.7836 123
419.8669 101
419.9503 74
420.0336 151
420.1169 98
420.2003 106
420.2836 69
420.3670 133
420.4503 109
420.5336 111
420.6170 89
420.7003 40
420.7837 91
420.8670 79
420.9503 58
421.0337 53
421.1170 28
421.2004 91
421.2837 90
421.3670 60
421.4504 47
421.5337 34
421.6171 32
421.7004 45
421.7837 70
421.8671 28
421.9504 56
422.0338 28
422.1171 23
422.2004 64
422.2838 35
422.3671 62
422.4505 41
422.5338 48
422.6171 91
422.7005 64
422.7838 108
422.8672 128
422.9505 120
423.0338 88
423.1172 134
423.2005 143
423.2839 113
423.3672 102
423.4505 129
423.5339 121
423.6172 150
423.7006 169
423.7839 120
423.8672 162
423.9506 179
424.0339 165
424.1173 210
424.2006 212
424.2839 210
424.3673 170
424.4506 181
424.5340 133
424.6173 153
424.7006 133
424.7840 202
424.8673 165
424.9507 182
425.0340 174
425.1173 134
425.2007 138
425.2840 154
425.3674 147
425.4507 127
425.5340 117
425.6174 159
425.7007 99
425.7841 102
425.8674 81
425.9507 142
426.0341 93
426.1174 108
426.2008 66
426.2841 72
426.3674 73
426.4508 95
426.5341 77
426.6175 67
426.7008 60
426.7841 57
426.8675 67
426.9508 30
427.0342 44
427.1175 70
427.2008 27
427.2842 46
427.3675 30
427.4509 54
427.5342 58
427.6175 26
427.7009 30
427.7842 56
427.8676 83
427.9509 56
428.0342 36
428.1176 68
428.2009 111
428.2843 41
428.3676 42
428.4509 40
428.5343 79
428.6176 70
428.7010 92
428.7843 39
428.8676 49
428.9510 68
429.0343 82
429.1177 55
429.2010 60
429.2843 88
429.3677 49
429.4510 39
429.5344 59
429.6177 47
429.7010 80
429.7844 54
429.8677 46
429.9511 56
430.0344 68
430.1177 47
430.2011 106
430.2844 91
430.3678 48
430.4511 65
430.5344 48
430.6178 37
430.7011 53
430.7845 88
430.8678 21
430.9511 67
431.0345 40
431.1178 45
431.2012 60
431.2845 49
431.3678 52
431.4512 63
431.5345 62
431.6179 53
431.7012 26
431.7845 53
431.8679 54
431.9512 57
432.0346 90
432.1179 120
432.2012 86
432.2846 100
432.3679 109
432.4513 75
432.5346 87
432.6179 115
432.7013 136
432.7846 107
432.8680 156
432.9513 116
433.0346 168
433.1180 165
433.2013 131
433.2847 145
433.3680 158
433.4513 120
433.5347 91
433.6180 147
433.7014 147
433.7847 97
433.8680 112
433.9514 140
434.0347 126
434.1181 132
434.2014 112
434.2847 129
434.3681 96
434.4514 119
434.5348 83
434.6181 78
434.7014 79
434.7848 116
434.8681 80
434.9515 91
435.0348 107
435.1181 65
435.2015 63
435.2848 91
435.3682 60
435.4515 89
435.5348 46
435.6182 34
435.7015 63
435.7849 35
435.8682 60
435.9515 68
436.0349 65
436.1182 66
436.2016 46
436.2849 39
436.3682 35
436.4516 73
436.5349 38
436.6183 39
436.7016 84
436.7849 92
436.8683 45
436.9516 71
437.0350 76
437.1183 68
437.2016 60
437.2850 69
437.3683 47
437.4517 102
437.5350 54
437.6183 57
437.7017 70
437.7850 54
437.8684 85
437.9517 83
438.0350 63
438.1184 75
438.2017 56
438.2851 83
438.3684 85
438.4517 64
438.5351 74
438.6184 101
438.7018 74
438.7851 74
438.8684 68
438.9518 97
439.0351 74
439.1185 82
439.2018 61
439.2851 72
439.3685 67
439.4518 72
439.5352 58
439.6185 72
439.7018 64
439.7852 69
439.8685 61
439.9519 69
440.0352 56
440.1185 33
440.2019 67
440.2852 84
440.3686 50
440.4519 69
440.5352 48
440.6186 48
440.7019 70
440.7853 35
440.8686 39
440.9519 45
441.0353 35
441.1186 38
441.2020 89
441.2853 43
441.3686 54
441.4520 69
441.5353 54
441.6187 58
441.7020 52
441.7853 68
441.8687 72
441.9520 81
442.0354 79
442.1187 77
442.2020 110
442.2854 79
442.3687 89
442.4521 89
442.5354 92
442.6187 89
442.7021 83
442.7854 128
442.8688 90
442.9521 95
443.0354 109
443.1188 124
443.2021 117
443.2855 104
443.3688 87
443.4521 104
443.5355 128
443.6188 128
443.7022 98
443.7855 72
443.8688 53
443.9522 85
444.0355 142
444.1189 49
444.2022 63
444.2855 68
444.3689 58
444.4522 60
444.5356 37
444.6189 45
444.7022 69
444.7856 51
444.8689 55
444.9523 68
445.0356 30
445.1189 52
445.2023 31
445.2856 47
445.3690 41
445.4523 74
445.5356 19
445.6190 26
445.7023 49
445.7857 60
445.8690 58
445.9523 62
446.0357 39
446.1190 47
446.2024 57
446.2857 55
446.3690 35
446.4524 58
446.5357 61
446.6191 60
446.7024 54
446.7857 67
446.8691 74
446.9524 73
447.0358 44
447.1191 75
447.2024 128
447.2858 84
447.3691 70
447.4525 60
447.5358 79
447.6191 88
447.7025 48
447.7858 82
447.8692 61
447.9525 68
448.0358 75
448.1192 58
448.2025 77
448.2859 89
448.3692 79
448.4525 87
448.5359 46
448.6192 41
448.7026 67
448.7859 51
448.8692 39
448.9526 76
449.0359 57
449.1193 24
449.2026 62
449.2859 66
449.3693 50
449.4526 30
449.5360 13
449.6193 67
449.7026 37
449.7860 34
449.8693 87
449.9527 65
450.0360 52
450.1193 47
450.2027 73
450.2860 60
450.3694 42
450.4527 52
450.5360 53
450.6194 78
450.7027 33
450.7861 49
450.8694 40
450.9527 69
451.0361 45
451.1194 52
451.2028 63
451.2861 56
451.3694 46
451.4528 55
451.5361 44
451.6195 71
451.7028 62
451.7861 85
451.8695 75
451.9528 53
452.0362 46
452.1195 49
452.2028 79
452.2862 60
452.3695 49
452.4529 62
452.5362 50
452.6195 56
452.7029 40
452.7862 71
452.8696 39
452.9529 43
453.0362 64
453.1196 44
453.2029 41
453.2863 64
453.3696 21
453.4529 39
453.5363 61
453.6196 19
453.7030 58
453.7863 65
453.8696 31
453.9530 11
454.0363 22
454.1197 29
454.2030 33
454.2863 26
454.3697 97
454.4530 64
454.5364 37
454.6197 65
454.7030 58
454.7864 58
454.8697 54
454.9531 57
455.0364 73
455.1197 77
455.2031 49
455.2864 29
455.3698 81
455.4531 49
455.5364 45
455.6198 60
455.7031 60
455.7865 72
455.8698 114
455.9531 39
456.0365 50
456.1198 38
456.2032 103
456.2865 48
456.3698 96
456.4532 42
456.5365 37
456.6199 76
456.7032 64
456.7865 69
456.8699 95
456.9532 71
457.0366 73
457.1199 37
457.2032 88
457.2866 42
457.3699 29
457.4533 33
457.5366 48
457.6199 51
457.7033 45
457.7866 86
457.8700 33
457.9533 55
458.0366 30
458.1200 68
458.2033 19
458.2867 47
458.3700 44
458.4533 67
458.5367 33
458.6200 34
458.7034 31
458.7867 25
458.8700 42
458.9534 17
459.0367 51
459.1201 61
459.2034 42
459.2867 59
459.3701 42
459.4534 29
459.5368 36
459.6201 48
459.7034 65
459.7868 63
459.8701 66
459.9535 71
460.0368 62
460.1201 91
460.2035 65
460.2868 39
460.3702 88
460.4535 99
460.5368 108
460.6202 80
460.7035 86
460.7869 50
460.8702 81
460.9535 108
461.0369 96
461.1202 65
461.2036 81
461.2869 74
461.3702 69
461.4536 82
461.5369 62
461.6203 52
461.7036 73
461.7869 93
461.8703 70
461.9536 96
462.0370 55
462.1203 80
462.2036 89
462.2870 36
462.3703 58
462.4537 59
462.5370 34
462.6203 27
462.7037 72
462.7870 32
462.8704 66
462.9537 57
463.0370 68
463.1204 35
463.2037 33
463.2871 17
463.3704 38
463.4537 49
463.5371 58
463.6204 68
463.7038 35
463.7871 30
463.8704 32
463.9538 21
464.0371 41
464.1205 105
464.2038 39
464.2871 27
464.3705 59
464.4538 84
464.5372 48
464.6205 60
464.7038 82
464.7872 105
464.8705 73
464.9539 91
465.0372 72
465.1205 70
465.2039 68
465.2872 65
465.3706 85
465.4539 82
465.5372 119
465.6206 84
465.7039 45
465.7873 76
465.8706 52
465.9539 48
466.0373 72
466.1206 53
466.2040 79
466.2873 26
466.3706 76
466.4540 97
466.5373 71
466.6207 37
466.7040 31
466.7873 49
466.8707 32
466.9540 30
467.0374 39
467.1207 13
467.2040 35
467.2874 70
467.3707 78
467.4541 12
467.5374 52
467.6207 37
467.7041 24
467.7874 28
467.8708 25
467.9541 18
468.0374 48
468.1208 35
468.2041 59
468.2875 41
468.3708 34
468.4541 59
468.5375 38
468.6208 51
468.7042 65
468.7875 87
468.8708 75
468.9542 71
469.0375 71
469.1209 95
469.2042 86
469.2875 106
469.3709 85
469.4542 90
469.5376 137
469.6209 99
469.7042 84
469.7876 148
469.8709 122
469.9543 95
470.0376 86
470.1209 108
470.2043 98
470.2876 101
470.3710 101
470.4543 135
470.5376 76
470.6210 117
470.7043 99
470.7877 72
470.8710 72
470.9543 84
471.0377 75
471.1210 75
471.2044 78
471.2877 54
471.3710 60
471.4544 80
471.5377 62
471.6211 32
471.7044 57
471.7877 64
471.8711 59
471.9544 29
472.0378 48
472.1211 19
472.2044 58
472.2878 31
472.3711 26
472.4545 31
472.5378 62
472.6211 39
472.7045 26
472.7878 70
472.8712 18
472.9545 46
473.0378 34
473.1212 56
473.2045 38
473.2879 35
473.3712 64
473.4545 43
473.5379 39
473.6212 53
473.7046 31
473.7879 29
473.8712 61
473.9546 64
474.0379 43
474.1213 57
474.2046 83
474.2879 63
474.3713 67
474.4546 94
474.5380 72
474.6213 80
474.7046 73
474.7880 69
474.8713 90
474.9547 77
475.0380 106
475.1213 81
475.2047 60
475.2880 71
475.3714 91
475.4547 74
475.5380 42
475.6214 57
475.7047 49
475.7881 48
475.8714 61
475.9547 71
476.0381 72
476.1214 64
476.2048 59
476.2881 98
476.3714 52
476.4548 34
476.5381 39
476.6215 48
476.7048 33
476.7881 28
476.8715 22
476.9548 50
477.0382 33
477.1215 34
477.2048 31
477.2882 22
477.3715 26
477.4549 28
477.5382 38
477.6215 71
477.7049 58
477.7882 51
477.8716 32
477.9549 54
478.0382 35
478.1216 23
478.2049 38
478.2883 44
478.3716 47
478.4549 30
478.5383 78
478.6216 50
478.7050 76
478.7883 76
478.8716 85
478.9550 53
479.0383 23
479.1217 112
479.2050 83
479.2883 74
479.3717 73
479.4550 48
479.5384 47
479.6217 102
479.7050 59
479.7884 63
479.8717 57
479.9551 57
480.0384 70
480.1217 73
480.2051 67
480.2884 50
480.3718 36
480.4551 39
480.5384 60
480.6218 34
480.7051 65
480.7885 41
480.8718 48
480.9551 52
481.0385 54
481.1218 18
481.2052 47
481.2885 27
481.3718 47
481.4552 27
481.5385 30
481.6219 45
481.7052 34
481.7885 23
481.8719 10
481.9552 44
482.0386 15
482.1219 33
482.2052 65
482.2886 43
482.3719 48
482.4553 35
482.5386 62
482.6219 34
482.7053 62
482.7886 77
482.8720 49
482.9553 67
483.0386 63
483.1220 42
483.2053 37
483.2887 90
483.3720 50
483.4553 110
483.5387 63
483.6220 66
483.7054 95
483.7887 61
483.8720 80
483.9554 38
484.0387 65
484.1221 117
484.2054 91
484.2887 74
484.3721 94
484.4554 87
484.5388 50
484.6221 60
484.7054 93
484.7888 104
484.8721 72
484.9555 46
485.0388 52
485.1221 58
485.2055 55
485.2888 53
485.3722 60
485.4555 49
485.5388 65
485.6222 18
485.7055 43
485.7889 87
485.8722 49
485.9555 29
486.0389 48
486.1222 24
486.2056 36
486.2889 24
486.3722 37
486.4556 36
486.5389 51
486.6223 29
486.7056 76
486.7889 26
486.8723 19
486.9556 19
487.0390 16
487.1223 28
487.2056 35
487.2890 42
487.3723 37
487.4557 33
487.5390 42
487.6223 30
487.7057 38
487.7890 57
487.8724 54
487.9557 65
488.0390 73
488.1224 51
488.2057 47
488.2891 34
488.3724 71
488.4557 64
488.5391 64
488.6224 100
488.7058 47
488.7891 100
488.8724 53
488.9558 53
489.0391 51
489.1225 39
489.2058 56
489.2891 65
489.3725 49
489.4558 45
489.5392 45
489.6225 55
489.7058 58
489.7892 46
489.8725 29
489.9559 79
490.0392 49
490.1225 36
490.2059 19
490.2892 51
490.3726 35
490.4559 38
490.5392 55
490.6226 40
490.7059 17
490.7893 76
490.8726 46
490.9559 45
491.0393 18
491.1226 18
491.2060 53
491.2893 29
491.3726 75
491.4560 33
491.5393 51
491.6227 50
491.7060 62
491.7893 47
491.8727 54
491.9560 57
492.0394 60
492.1227 44
492.2060 55
492.2894 52
492.3727 37
492.4561 25
492.5394 44
492.6227 78
492.7061 42
492.7894 75
492.8728 70
492.9561 80
493.0394 59
493.1228 90
493.2061 36
493.2895 71
493.3728 59
493.4561 63
493.5395 55
493.6228 73
493.7062 95
493.7895 60
493.8728 72
493.9562 49
494.0395 73
494.1229 70
494.2062 57
494.2895 57
494.3729 69
494.4562 60
494.5396 53
494.6229 51
494.7062 49
494.7896 57
494.8729 45
494.9563 48
495.0396 36
495.1229 38
495.2063 75
495.2896 36
495.3730 21
495.4563 42
495.5396 42
495.6230 38
495.7063 62
495.7897 39
495.8730 34
495.9563 30
496.0397 10
496.1230 22
496.2064 26
496.2897 23
496.3730 32
496.4564 34
496.5397 16
496.6231 42
496.7064 40
496.7897 29
496.8731 43
496.9564 69
497.0398 42
497.1231 60
497.2064 34
497.2898 26
497.3731 60
497.4565 30
497.5398 52
497.6231 44
497.7065 63
497.7898 48
497.8732 29
497.9565 25
498.0398 64
498.1232 28
498.2065 43
498.2899 54
498.3732 26
498.4565 20
498.5399 51
498.6232 66
498.7066 38
498.7899 41
498.8732 31
498.9566 60
499.0399 57
499.1233 32
499.2066 15
499.2899 30
499.3733 45
499.4566 36
499.5400 50
499.6233 14
499.7066 50
499.7900 43
499.8733 30
499.9567 16
500.0400 36
500.1233 31
500.2067 40
500.2900 30
500.3734 28
500.4567 43
500.5400 24
500.6234 35
500.7067 38
500.7901 56
500.8734 11
500.9567 65
501.0401 17
501.1234 55
501.2068 41
501.2901 56
501.3734 64
501.4568 24
501.5401 44
501.6235 42
501.7068 32
501.7901 87
501.8735 28
501.9568 42
502.0402 47
502.1235 45
502.2068 63
502.2902 70
502.3735 89
502.4569 50
502.5402 60
502.6235 44
502.7069 41
502.7902 56
502.8736 79
502.9569 67
503.0402 75
503.1236 29
503.2069 95
503.2903 43
503.3736 41
503.4569 71
503.5403 52
503.6236 54
503.7070 48
503.7903 38
503.8736 54
503.9570 45
504.0403 35
504.1237 44
504.2070 23
504.2903 44
504.3737 27
504.4570 57
504.5404 47
504.6237 54
504.7070 30
504.7904 77
504.8737 31
504.9571 19
505.0404 27
505.1237 48
505.2071 9
505.2904 79
505.3738 47
505.4571 45
505.5404 22
505.6238 23
505.7071 15
505.7905 49
505.8738 23
505.9571 13
506.0405 59
506.1238 35
506.2072 33
506.2905 41
506.3738 78
506.4572 85
506.5405 54
506.6239 32
506.7072 42
506.7905 36
506.8739 36
506.9572 33
507.0406 32
507.1239 29
507.2072 31
507.2906 64
507.3739 25
507.4573 26
507.5406 38
507.6239 24
507.7073 27
507.7906 28
507.8740 42
507.9573 41
508.0406 49
508.1240 44
508.2073 77
508.2907 35
508.3740 22
508.4573 49
508.5407 22
508.6240 57
508.7074 28
508.7907 14
508.8740 38
508.9574 51
509.0407 37
509.1241 35
509.2074 43
509.2907 29
509.3741 14
509.4574 42
509.5408 64
509.6241 45
509.7074 57
509.7908 17
509.8741 10
509.9575 26
510.0408 47
510.1241 56
510.2075 16
510.2908 23
510.3742 65
510.4575 4
510.5408 40
510.6242 64
510.7075 19
510.7909 31
510.8742 49
510.9575 7
511.0409 27
511.1242 24
511.2076 23
511.2909 50
511.3742 37
511.4576 34
511.5409 37
511.6243 22
511.7076 48
511.7909 30
511.8743 27
511.9576 11
512.0410 64
512.1243 27
512.2076 40
512.2910 11
512.3743 26
512.4577 64
512.5410 23
512.6243 31
512.7077 18
512.7910 19
512.8744 12
512.9577 23
513.0410 22
513.1244 23
513.2077 28
513.2911 39
513.3744 34
513.4577 40
513.5411 18
513.6244 36
513.7078 5
513.7911 33
513.8744 33
513.9578 53
514.0411 24
514.1245 44
514.2078 64
514.2911 29
514.3745 37
514.4578 47
514.5412 38
514.6245 43
514.7078 70
514.7912 16
514.8745 13
514.9579 13
515.0412 41
515.1245 35
515.2079 25
515.2912 29
515.3746 12
515.4579 44
515.5412 43
515.6246 60
515.7079 34
515.7913 43
515.8746 32
515.9579 35
516.0413 27
516.1246 16
516.2080 26
516.2913 58
516.3746 42
516.4580 72
516.5413 23
516.6247 33
516.7080 14
516.7913 17
516.8747 36
516.9580 13
517.0414 29
517.1247 54
517.2080 51
517.2914 38
517.3747 21
517.4581 28
517.5414 23
517.6247 35
517.7081 26
517.7914 29
517.8748 27
517.9581 35
518.0414 21
518.1248 31
518.2081 28
518.2915 41
518.3748 24
518.4581 61
518.5415 10
518.6248 24
518.7082 19
518.7915 38
518.8748 26
518.9582 26
519.0415 13
519.1249 42
519.2082 23
519.2915 17
519.3749 18
519.4582 20
519.5416 22
519.6249 20
519.7082 39
519.7916 14
519.8749 35
519.9583 29
520.0416 22
520.1249 46
520.2083 38
520.2916 19
520.3750 22
520.4583 64
520.5416 42
520.6250 54
520.7083 32
520.7917 28
520.8750 27
520.9583 35
521.0417 44
521.1250 20
521.2084 50
521.2917 16
521.3750 26
521.4584 33
521.5417 35
521.6251 22
521.7084 13
521.7917 30
521.8751 20
521.9584 33
522.0418 27
522.1251 38
522.2084 36
522.2918 25
522.3751 24
522.4585 40
522.5418 64
522.6251 13
522.7085 43
522.7918 53
522.8752 16
522.9585 29
523.0418 39
523.1252 91
523.2085 34
523.2919 29
523.3752 34
523.4585 30
523.5419 38
523.6252 12
523.7086 40
523.7919 25
523.8752 19
523.9586 39
524.0419 20
524.1253 19
524.2086 42
524.2919 30
524.3753 21
524.4586 47
524.5420 33
524.6253 53
524.7086 40
524.7920 41
524.8753 21
524.9587 38
525.0420 67
525.1253 6
525.2087 39
525.2920 36
525.3754 42
525.4587 69
525.5420 39
525.6254 24
525.7087 21
525.7921 41
525.8754 26
525.9587 61
526.0421 58
526.1254 29
526.2088 50
526.2921 58
526.3754 20
526.4588 32
526.5421 65
526.6255 18
526.7088 22
526.7921 41
526.8755 17
526.9588 28
527.0422 21
527.1255 36
527.2088 51
527.2922 14
527.3755 23
527.4589 16
527.5422 18
527.6255 27
527.7089 39
527.7922 8
527.8756 37
527.9589 19
528.0422 23
528.1256 31
528.2089 53
528.2923 27
528.3756 19
528.4589 41
528.5423 38
528.6256 27
528.7090 46
528.7923 31
528.8756 13
528.9590 9
529.0423 26
529.1257 76
529.2090 45
529.2923 25
529.3757 41
529.4590 47
529.5424 37
529.6257 22
529.7090 23
529.7924 33
529.8757 16
529.9591 44
530.0424 28
530.1257 30
530.2091 61
530.2924 29
530.3758 40
530.4591 36
530.5424 42
530.6258 28
530.7091 22
530.7925 23
530.8758 25
530.9591 53
531.0425 40
531.1258 23
531.2092 41
531.2925 56
531.3758 25
531.4592 41
531.5425 17
531.6259 19
531.7092 22
531.7925 30
531.8759 38
531.9592 26
532.0426 19
532.1259 11
532.2092 48
532.2926 42
532.3759 34
532.4593 29
532.5426 56
532.6259 10
532.7093 19
532.7926 39
532.8760 32
532.9593 26
533.0426 22
533.1260 41
533.2093 29
533.2927 54
533.3760 20
533.4593 20
533.5427 32
533.6260 42
533.7094 28
533.7927 52
533.8760 35
533.9594 21
534.0427 27
534.1261 34
534.2094 34
534.2927 16
534.3761 25
534.4594 4
534.5428 24
534.6261 26
534.7094 51
534.7928 20
534.8761 34
534.9595 59
535.0428 92
535.1261 23
535.2095 30
535.2928 16
535.3762 19
535.4595 33
535.5428 33
535.6262 32
535.7095 53
535.7929 19
535.8762 20
535.9595 32
536.0429 34
536.1262 23
536.2096 47
536.2929 12
536.3762 11
536.4596 55
536.5429 41
536.6263 30
536.7096 32
536.7929 30
536.8763 40
536.9596 19
537.0430 37
537.1263 11
537.2096 24
537.2930 29
537.3763 46
537.4597 13
537.5430 28
537.6263 32
537.7097 27
537.7930 22
537.8764 26
537.9597 27
538.0430 12
538.1264 13
538.2097 25
538.2931 28
538.3764 39
538.4597 27
538.5431 21
538.6264 34
538.7098 44
538.7931 19
538.8764 49
538.9598 23
539.0431 31
539.1265 25
539.2098 25
539.2931 9
539.3765 44
539.4598 35
539.5432 20
539.6265 23
539.7098 19
539.7932 41
539.8765 43
539.9599 16
540.0432 53
540.1265 33
540.2099 66
540.2932 17
540.3766 50
540.4599 44
540.5432 48
540.6266 27
540.7099 76
540.7933 32
540.8766 13
540.9599 41
541.0433 13
541.1266 14
541.2100 52
541.2933 31
541.3766 38
541.4600 28
541.5433 75
541.6267 35
541.7100 21
541.7933 31
541.8767 50
541.9600 63
542.0434 19
542.1267 38
542.2100 4
542.2934 33
542.3767 27
542.4601 35
542.5434 38
542.6267 15
542.7101 41
542.7934 32
542.8768 23
542.9601 19
543.0434 25
543.1268 6
543.2101 45
543.2935 10
543.3768 13
543.4601 46
543.5435 37
543.6268 58
543.7102 18
543.7935 4
543.8768 11
543.9602 26
544.0435 17
544.1269 23
544.2102 20
544.2935 60
544.3769 20
544.4602 55
544.5436 20
544.6269 11
544.7102 70
544.7936 16
544.8769 57
544.9603 21
545.0436 26
545.1269 17
545.2103 60
545.2936 27
545.3770 33
545.4603 61
545.5436 41
545.6270 46
545.7103 15
545.7937 28
545.8770 19
545.9603 46
546.0437 27
546.1270 15
546.2104 18
546.2937 23
546.3770 23
546.4604 17
546.5437 20
546.6271 41
546.7104 29
546.7937 33
546.8771 27
546.9604 10
547.0438 18
547.1271 20
547.2104 18
547.2938 21
547.3771 12
547.4605 34
547.5438 31
547.6271 23
547.7105 40
547.7938 30
547.8772 13
547.9605 32
548.0438 32
548.1272 52
548.2105 36
548.2939 28
548.3772 10
548.4605 10
548.5439 29
548.6272 53
548.7106 21
548.7939 27
548.8772 13
548.9606 30
549.0439 36
549.1273 19
549.2106 23
549.2939 44
549.3773 4
549.4606 29
549.5440 16
549.6273 26
549.7106 36
549.7940 31
549.8773 19
549.9607 30
550.0440 21
550.1273 6
550.2107 9
550.2940 29
550.3774 34
550.4607 14
550.5440 38
550.6274 23
550.7107 19
550.7941 20
550.8774 19
550.9607 21
551.0441 32
551.1274 38
551.2108 34
551.2941 15
551.3774 15
551.4608 51
551.5441 11
551.6275 30
551.7108 8
551.7941 15
551.8775 17
551.9608 41
552.0442 30
552.1275 15
552.2108 14
552.2942 33
552.3775 10
552.4609 31
552.5442 40
552.6275 11
552.7109 30
552.7942 35
552.8776 25
552.9609 12
553.0442 46
553.1276 30
553.2109 34
553.2943 35
553.3776 65
553.4609 37
553.5443 55
553.6276 28
553.7110 42
553.7943 25
553.8776 29
553.9610 44
554.0443 50
554.1277 38
554.2110 34
554.2943 88
554.3777 9
554.4610 39
554.5444 90
554.6277 20
554.7110 36
554.7944 38
554.8777 34
554.9611 42
555.0444 25
555.1277 51
555.2111 50
555.2944 55
555.3778 51
555.4611 61
555.5444 27
555.6278 33
555.7111 40
555.7945 55
555.8778 49
555.9611 32
556.0445 57
556.1278 26
556.2112 60
556.2945 51
556.3778 27
556.4612 65
556.5445 24
556.6279 37
556.7112 12
556.7945 64
556.8779 55
556.9612 24
557.0446 32
557.1279 46
557.2112 52
557.2946 24
557.3779 71
557.4613 20
557.5446 15
557.6279 33
557.7113 87
557.7946 64
557.8780 37
557.9613 44
558.0446 49
558.1280 71
558.2113 33
558.2947 59
558.3780 33
558.4613 52
558.5447 60
558.6280 9
558.7114 20
558.7947 60
558.8780 9
558.9614 32
559.0447 37
559.1281 43
559.2114 39
559.2947 52
559.3781 15
559.4614 24
559.5448 17
559.6281 31
559.7114 72
559.7948 32
559.8781 39
559.9615 66
560.0448 46
560.1281 17
560.2115 46
560.2948 22
560.3782 24
560.4615 40
560.5448 36
560.6282 33
560.7115 43
560.7949 39
560.8782 28
560.9615 56
561.0449 47
561.1282 33
561.2116 17
561.2949 11
561.3782 44
561.4616 27
561.5449 35
561.6283 36
561.7116 38
561.7949 47
561.8783 82
561.9616 25
562.0450 17
562.1283 30
562.2116 17
562.2950 10
562.3783 67
562.4617 21
562.5450 41
562.6283 20
562.7117 49
562.7950 11
562.8784 25
562.9617 52
563.0450 22
563.1284 22
563.2117 39
563.2951 26
563.3784 21
563.4617 32
563.5451 37
563.6284 20
563.7118 34
563.7951 33
563.8784 30
563.9618 43
564.0451 32
564.1285 50
564.2118 43
564.2951 66
564.3785 56
564.4618 32
564.5452 15
564.6285 21
564.7118 44
564.7952 29
564.8785 17
564.9619 45
565.0452 41
565.1285 23
565.2119 23
565.2952 66
565.3786 57
565.4619 13
565.5452 28
565.6286 29
565.7119 50
565.7953 28
565.8786 31
565.9619 40
566.0453 47
566.1286 50
566.2120 54
566.2953 59
566.3786 26
566.4620 19
566.5453 33
566.6287 42
566.7120 42
566.7953 40
566.8787 18
566.9620 37
567.0454 38
567.1287 40
567.2120 35
567.2954 17
567.3787 29
567.4621 26
567.5454 32
567.6287 27
567.7121 26
567.7954 79
567.8788 13
567.9621 17
568.0454 30
568.1288 26
568.2121 31
568.2955 51
568.3788 41
568.4621 53
568.5455 33
568.6288 53
568.7122 27
568.7955 22
568.8788 85
568.9622 51
569.0455 13
569.1289 20
569.2122 8
569.2955 41
569.3789 25
569.4622 21
569.5456 25
569.6289 70
569.7122 19
569.7956 43
569.8789 16
569.9623 52
570.0456 54
570.1289 9
570.2123 42
570.2956 45
570.3790 63
570.4623 30
570.5456 17
570.6290 40
570.7123 18
570.7957 28
570.8790 46
570.9623 20
571.0457 33
571.1290 18
571.2124 26
571.2957 36
571.3790 18
571.4624 12
571.5457 40
571.6291 30
571.7124 22
571.7957 62
571.8791 11
571.9624 22
572.0458 17
572.1291 25
572.2124 27
572.2958 26
572.3791 48
572.4625 31
572.5458 44
572.6291 21
572.7125 28
572.7958 56
572.8792 17
572.9625 39
573.0458 65
573.1292 25
573.2125 27
573.2959 48
573.3792 31
573.4625 32
573.5459 18
573.6292 38
573.7126 54
573.7959 40
573.8792 26
573.9626 31
574.0459 32
574.1293 70
574.2126 17
574.2959 20
574.3793 20
574.4626 26
574.5460 16
574.6293 32
574.7126 67
574.7960 37
574.8793 33
574.9627 24
575.0460 15
575.1293 21
575.2127 41
575.2960 25
575.3794 35
575.4627 63
575.5460 52
575.6294 23
575.7127 15
575.7961 59
575.8794 43
575.9627 57
576.0461 42
576.1294 27
576.2128 28
576.2961 43
576.3794 48
576.4628 36
576.5461 26
576.6295 26
576.7128 25
576.7961 33
576.8795 37
576.9628 60
577.0462 38
577.1295 19
577.2128 77
577.2962 35
577.3795 61
577.4629 32
577.5462 53
577.6295 26
577.7129 34
577.7962 9
577.8796 56
577.9629 17
578.0462 11
578.1296 21
578.2129 37
578.2963 63
578.3796 28
578.4629 28
578.5463 23
578.6296 27
578.7130 21
578.7963 33
578.8796 48
578.9630 38
579.0463 27
579.1297 9
579.2130 36
579.2963 46
579.3797 28
579.4630 30
579.5464 21
579.6297 31
579.7130 24
579.7964 33
579.8797 35
579.9631 16
580.0464 37
580.1297 51
580.2131 38
580.2964 39
580.3798 23
580.4631 47
580.5464 28
580.6298 40
580.7131 17
580.7965 9
580.8798 24
580.9631 28
581.0465 27
581.1298 27
581.2132 39
581.2965 25
581.3798 25
581.4632 37
581.5465 36
581.6299 60
581.7132 25
581.7965 17
581.8799 32
581.9632 39
582.0466 21
582.1299 46
582.2132 29
582.2966 21
582.3799 27
582.4633 15
582.5466 41
582.6299 41
582.7133 27
582.7966 34
582.8800 8
582.9633 37
583.0466 37
583.1300 30
583.2133 11
583.2967 13
583.3800 16
583.4633 33
583.5467 32
583.6300 27
583.7134 19
583.7967 13
583.8800 25
583.9634 10
584.0467 14
584.1301 40
584.2134 23
584.2967 25
584.3801 32
584.4634 42
584.5468 46
584.6301 33
584.7134 35
584.7968 21
584.8801 5
584.9635 27
585.0468 12
585.1301 39
585.2135 24
585.2968 28
585.3802 34
585.4635 15
585.5468 13
585.6302 33
585.7135 57
585.7969 20
585.8802 27
585.9635 60
586.0469 70
586.1302 44
586.2136 19
586.2969 11
586.3802 71
586.4636 20
586.5469 17
586.6303 19
586.7136 36
586.7969 17
586.8803 16
586.9636 42
587.0470 33
587.1303 27
587.2136 13
587.2970 42
587.3803 35
587.4637 44
587.5470 17
587.6303 26
587.7137 17
587.7970 28
587.8804 24
587.9637 48
588.0470 67
588.1304 46
588.2137 16
588.2971 37
588.3804 49
588.4637 51
588.5471 50
588.6304 49
588.7138 23
588.7971 26
588.8804 25
588.9638 33
589.0471 58
589.1305 24
589.2138 24
589.2971 18
589.3805 14
589.4638 37
589.5472 15
589.6305 23
589.7138 46
589.7972 24
589.8805 38
589.9639 32
590.0472 22
590.1305 66
590.2139 49
590.2972 28
590.3806 27
590.4639 26
590.5472 31
590.6306 43
590.7139 37
590.7973 15
590.8806 16
590.9639 43
591.0473 16
591.1306 23
591.2140 31
591.2973 33
591.3806 42
591.4640 23
591.5473 39
591.6307 39
591.7140 16
591.7973 44
591.8807 19
591.9640 39
592.0474 37
592.1307 44
592.2140 22
592.2974 26
592.3807 21
592.4641 27
592.5474 21
592.6307 23
592.7141 40
592.7974 51
592.8808 28
592.9641 24
593.0474 19
593.1308 28
593.2141 21
593.2975 39
593.3808 16
593.4641 40
593.5475 17
593.6308 24
593.7142 29
593.7975 23
593.8808 66
593.9642 57
594.0475 16
594.1309 31
594.2142 9
594.2975 73
594.3809 41
594.4642 41
594.5476 27
594.6309 37
594.7142 21
594.7976 17
594.8809 14
594.9643 46
595.0476 20
595.1309 60
595.2143 28
595.2976 30
595.3810 20
595.4643 17
595.5476 30
595.6310 23
595.7143 11
595.7977 43
595.8810 40
595.9643 37
596.0477 32
596.1310 15
596.2144 17
596.2977 32
596.3810 12
596.4644 56
596.5477 23
596.6311 28
596.7144 16
596.7977 44
596.8811 56
596.9644 19
597.0478 11
597.1311 33
597.2144 26
597.2978 12
597.3811 50
597.4645 39
597.5478 20
597.6311 26
597.7145 35
597.7978 17
597.8812 48
597.9645 48
598.0478 12
598.1312 33
598.2145 35
598.2979 25
598.3812 54
598.4645 24
598.5479 53
598.6312 22
598.7146 45
598.7979 20
598.8812 38
598.9646 9
599.0479 32
599.1313 25
599.2146 22
599.2979 51
599.3813 18
599.4646 14
599.5480 40
599.6313 77
599.7146 13
599.7980 45
599.8813 46
599.9647 16
