0.0000 12
0.0833 27
0.1667 38
0.2500 6
0.3334 11
0.4167 31
0.5000 44
0.5834 38
0.6667 48
0.7501 28
0.8334 21
0.9167 35
1.0001 28
1.0834 16
1.1668 35
1.2501 38
1.3334 19
1.4168 28
1.5001 21
1.5835 18
1.6668 30
1.7501 33
1.8335 38
1.9168 18
2.0002 9
2.0835 14
2.1668 14
2.2502 24
2.3335 32
2.4169 24
2.5002 34
2.5835 26
2.6669 27
2.7502 24
2.8336 13
2.9169 34
3.0002 24
3.0836 34
3.1669 10
3.2503 18
3.3336 15
3.4169 13
3.5003 26
3.5836 26
3.6670 8
3.7503 19
3.8336 29
3.9170 50
4.0003 36
4.0837 19
4.1670 22
4.2503 24
4.3337 16
4.4170 20
4.5004 11
4.5837 20
4.6670 46
4.7504 11
4.8337 22
4.9171 16
5.0004 19
5.0837 10
5.1671 11
5.2504 13
5.3338 40
5.4171 41
5.5004 17
5.5838 18
5.6671 18
5.7505 28
5.8338 46
5.9171 43
6.0005 29
6.0838 33
6.1672 41
6.2505 18
6.3338 29
6.4172 30
6.5005 19
6.5839 21
6.6672 55
6.7505 50
6.8339 26
6.9172 53
7.0006 16
7.0839 40
7.1672 1
7.2506 15
7.3339 30
7.4173 44
7.5006 22
7.5839 22
7.6673 25
7.7506 31
7.8340 9
7.9173 26
8.0006 11
8.0840 29
8.1673 23
8.2507 18
8.3340 25
8.4173 19
8.5007 32
8.5840 49
8.6674 7
8.7507 27
8.8340 30
8.9174 10
9.0007 23
9.0841 12
9.1674 12
9.2507 33
9.3341 40
9.4174 17
9.5008 14
9.5841 16
9.6674 17
9.7508 10
9.8341 36
9.9175 6
10.0008 40
10.0841 39
10.1675 23
10.2508 20
10.3342 8
10.4175 10
10.5008 32
10.5842 21
10.6675 15
10.7509 20
10.8342 12
10.9175 21
11.0009 17
11.0842 24
11.1676 2
11.2509 19
11.3342 29
11.4176 35
11.5009 22
11.5843 15
11.6676 34
11.7509 14
11.8343 25
11.9176 16
12.0010 22
12.0843 18
12.1676 19
12.2510 23
12.3343 24
12.4177 21
12.5010 58
12.5843 26
12.6677 54
12.7510 26
12.8344 31
12.9177 39
13.0010 22
13.0844 17
13.1677 23
13.2511 13
13.3344 67
13.4177 11
13.5011 20
13.5844 39
13.6678 12
13.7511 29
13.8344 27
13.9178 49
14.0011 13
14.0845 12
14.1678 29
14.2511 18
14.3345 41
14.4178 13
14.5012 53
14.5845 26
14.6678 34
14.7512 9
14.8345 22
14.9179 28
15.0012 12
15.0845 22
15.1679 21
15.2512 40
15.3346 39
15.4179 15
15.5012 40
15.5846 32
15.6679 23
15.7513 48
15.8346 29
15.9179 33
16.0013 28
16.0846 14
16.1680 15
16.2513 13
16.3346 20
16.4180 15
16.5013 27
16.5847 33
16.6680 15
16.7513 14
16.8347 40
16.9180 57
17.0014 9
17.0847 21
17.1680 20
17.2514 46
17.3347 25
17.4181 18
17.5014 34
17.5847 6
17.6681 12
17.7514 27
17.8348 30
17.9181 25
18.0014 15
18.0848 21
18.1681 34
18.2515 39
18.3348 20
18.4181 72
18.5015 38
18.5848 23
18.6682 26
18.7515 39
18.8348 10
18.9182 22
19.0015 22
19.0849 27
19.1682 20
19.2515 3
19.3349 13
19.4182 5
19.5016 18
19.5849 2
19.6682 14
19.7516 19
19.8349 33
19.9183 4
20.0016 7
20.0849 8
20.1683 7
20.2516 11
20.3350 15
20.4183 5
20.5016 16
20.5850 6
20.6683 10
20.7517 7
20.8350 15
20.9183 6
21.0017 30
21.0850 11
21.1684 7
21.2517 2
21.3350 8
21.4184 21
21.5017 12
21.5851 13
21.6684 4
21.7517 0
21.8351 5
21.9184 6
22.0018 22
22.0851 1
22.1684 4
22.2518 9
22.3351 2
22.4185 38
22.5018 28
22.5851 8
22.6685 27
22.7518 4
22.8352 19
22.9185 11
23.0018 12
23.0852 14
23.1685 9
23.2519 22
23.3352 16
23.4185 0
23.5019 8
23.5852 4
23.6686 13
23.7519 2
23.8352 17
23.9186 4
24.0019 4
24.0853 32
24.1686 11
24.2519 11
24.3353 25
24.4186 15
24.5020 5
24.5853 8
24.6686 17
24.7520 10
24.8353 7
24.9187 10
25.0020 3
25.0853 17
25.1687 20
25.2520 15
25.3354 0
25.4187 15
25.5020 19
25.5854 22
25.6687 5
25.7521 4
25.8354 23
25.9187 2
26.0021 5
26.0854 24
26.1688 3
26.2521 6
26.3354 22
26.4188 14
26.5021 4
26.5855 20
26.6688 3
26.7521 6
26.8355 2
26.9188 7
27.0022 1
27.0855 8
27.1688 24
27.2522 10
27.3355 14
27.4189 7
27.5022 5
27.5855 6
27.6689 40
27.7522 4
27.8356 5
27.9189 8
28.0022 43
28.0856 26
28.1689 7
28.2523 9
28.3356 10
28.4189 3
28.5023 2
28.5856 2
28.6690 15
28.7523 29
28.8356 7
28.9190 5
29.0023 5
29.0857 28
29.1690 12
29.2523 8
29.3357 19
29.4190 2
29.5024 36
29.5857 8
29.6690 3
29.7524 9
29.8357 6
29.9191 17
30.0024 9
30.0857 2
30.1691 6
30.2524 0
30.3358 14
30.4191 12
30.5024 7
30.5858 28
30.6691 2
30.7525 10
30.8358 27
30.9191 0
31.0025 11
31.0858 8
31.1692 1
31.2525 17
31.3358 4
31.4192 21
31.5025 5
31.5859 14
31.6692 5
31.7525 26
31.8359 6
31.9192 26
32.0026 1
32.0859 10
32.1692 8
32.2526 8
32.3359 8
32.4193 13
32.5026 15
32.5859 11
32.6693 10
32.7526 17
32.8360 25
32.9193 10
33.0026 9
33.0860 15
33.1693 29
33.2527 4
33.3360 4
33.4193 25
33.5027 10
33.5860 13
33.6694 19
33.7527 6
33.8360 10
33.9194 2
34.0027 8
34.0861 14
34.1694 1
34.2527 9
34.3361 6
34.4194 22
34.5028 5
34.5861 15
34.6694 10
34.7528 4
34.8361 14
34.9195 8
35.0028 14
35.0861 28
35.1695 5
35.2528 13
35.3362 9
35.4195 2
35.5028 8
35.5862 5
35.6695 10
35.7529 23
35.8362 7
35.9195 18
36.0029 10
36.0862 12
36.1696 10
36.2529 15
36.3362 19
36.4196 21
36.5029 18
36.5863 8
36.6696 10
36.7529 20
36.8363 18
36.9196 3
37.0030 11
37.0863 4
37.1696 18
37.2530 14
37.3363 11
37.4197 13
37.5030 22
37.5863 34
37.6697 11
37.7530 4
37.8364 4
37.9197 4
38.0030 2
38.0864 18
38.1697 5
38.2531 2
38.3364 19
38.4197 10
38.5031 5
38.5864 0
38.6698 9
38.7531 9
38.8364 11
38.9198 7
39.0031 14
39.0865 19
39.1698 11
39.2531 9
39.3365 12
39.4198 6
39.5032 4
39.5865 5
39.6698 8
39.7532 10
39.8365 12
39.9199 3
40.0032 10
40.0865 19
40.1699 19
40.2532 10
40.3366 30
40.4199 7
40.5032 8
40.5866 7
40.6699 17
40.7533 3
40.8366 10
40.9199 17
41.0033 12
41.0866 9
41.1700 5
41.2533 3
41.3366 11
41.4200 21
41.5033 4
41.5867 14
41.6700 7
41.7533 0
41.8367 6
41.9200 31
42.0034 2
42.0867 27
42.1700 1
42.2534 1
42.3367 7
42.4201 7
42.5034 0
42.5867 14
42.6701 13
42.7534 4
42.8368 12
42.9201 13
43.0034 5
43.0868 1
43.1701 11
43.2535 13
43.3368 10
43.4201 4
43.5035 18
43.5868 50
43.6702 15
43.7535 7
43.8368 22
43.9202 4
44.0035 6
44.0869 7
44.1702 0
44.2535 8
44.3369 7
44.4202 23
44.5036 23
44.5869 24
44.6702 11
44.7536 5
44.8369 16
44.9203 0
45.0036 11
45.0869 14
45.1703 13
45.2536 4
45.3370 16
45.4203 5
45.5036 3
45.5870 13
45.6703 0
45.7537 15
45.8370 8
45.9203 12
46.0037 13
46.0870 8
46.1704 18
46.2537 13
46.3370 26
46.4204 26
46.5037 29
46.5871 10
46.6704 21
46.7537 16
46.8371 23
46.9204 4
47.0038 2
47.0871 4
47.1704 4
47.2538 6
47.3371 0
47.4205 2
47.5038 23
47.5871 15
47.6705 5
47.7538 22
47.8372 10
47.9205 12
48.0038 2
48.0872 11
48.1705 6
48.2539 4
48.3372 20
48.4205 6
48.5039 10
48.5872 23
48.6706 11
48.7539 31
48.8372 8
48.9206 13
49.0039 32
49.0873 13
49.1706 7
49.2539 4
49.3373 27
49.4206 19
49.5040 17
49.5873 6
49.6706 10
49.7540 14
49.8373 39
49.9207 5
50.0040 11
50.0873 6
50.1707 4
50.2540 10
50.3374 11
50.4207 5
50.5040 6
50.5874 6
50.6707 22
50.7541 5
50.8374 3
50.9207 13
51.0041 8
51.0874 2
51.1708 2
51.2541 5
51.3374 18
51.4208 15
51.5041 19
51.5875 9
51.6708 11
51.7541 9
51.8375 18
51.9208 4
52.0042 5
52.0875 23
52.1708 4
52.2542 7
52.3375 10
52.4209 10
52.5042 9
52.5875 15
52.6709 7
52.7542 8
52.8376 39
52.9209 3
53.0042 11
53.0876 8
53.1709 15
53.2543 1
53.3376 26
53.4209 4
53.5043 8
53.5876 5
53.6710 22
53.7543 4
53.8376 27
53.9210 15
54.0043 27
54.0877 2
54.1710 7
54.2543 11
54.3377 6
54.4210 8
54.5044 6
54.5877 25
54.6710 8
54.7544 4
54.8377 4
54.9211 13
55.0044 16
55.0877 3
55.1711 2
55.2544 12
55.3378 8
55.4211 10
55.5044 14
55.5878 15
55.6711 17
55.7545 3
55.8378 6
55.9211 4
56.0045 10
56.0878 4
56.1712 9
56.2545 4
56.3378 7
56.4212 0
56.5045 3
56.5879 5
56.6712 3
56.7545 8
56.8379 15
56.9212 3
57.0046 15
57.0879 7
57.1712 0
57.2546 47
57.3379 23
57.4213 26
57.5046 17
57.5879 0
57.6713 20
57.7546 8
57.8380 13
57.9213 14
58.0046 2
58.0880 4
58.1713 12
58.2547 16
58.3380 8
58.4213 5
58.5047 15
58.5880 18
58.6714 8
58.7547 9
58.8380 8
58.9214 10
59.0047 16
59.0881 8
59.1714 28
59.2547 19
59.3381 10
59.4214 11
59.5048 3
59.5881 10
59.6714 17
59.7548 23
59.8381 3
59.9215 5
60.0048 2
60.0881 9
60.1715 10
60.2548 13
60.3382 13
60.4215 30
60.5048 2
60.5882 6
60.6715 0
60.7549 9
60.8382 14
60.9215 18
61.0049 2
61.0882 6
61.1716 20
61.2549 11
61.3382 15
61.4216 7
61.5049 27
61.5883 4
61.6716 17
61.7549 10
61.8383 2
61.9216 10
62.0050 21
62.0883 16
62.1716 20
62.2550 24
62.3383 5
62.4217 1
62.5050 7
62.5883 24
62.6717 0
62.7550 19
62.8384 16
62.9217 5
63.0050 11
63.0884 5
63.1717 10
63.2551 12
63.3384 2
63.4217 2
63.5051 13
63.5884 11
63.6718 17
63.7551 13
63.8384 15
63.9218 18
64.0051 8
64.0885 12
64.1718 19
64.2551 16
64.3385 37
64.4218 9
64.5052 36
64.5885 6
64.6718 10
64.7552 20
64.8385 10
64.9219 2
65.0052 8
65.0885 13
65.1719 18
65.2552 4
65.3386 5
65.4219 10
65.5052 7
65.5886 27
65.6719 15
65.7553 5
65.8386 11
65.9219 24
66.0053 9
66.0886 8
66.1720 13
66.2553 3
66.3386 2
66.4220 20
66.5053 6
66.5887 19
66.6720 23
66.7553 9
66.8387 9
66.9220 6
67.0054 2
67.0887 3
67.1720 9
67.2554 9
67.3387 12
67.4221 9
67.5054 7
67.5887 19
67.6721 13
67.7554 2
67.8388 8
67.9221 8
68.0054 14
68.0888 4
68.1721 3
68.2555 7
68.3388 4
68.4221 11
68.5055 5
68.5888 6
68.6722 12
68.7555 13
68.8388 3
68.9222 9
69.0055 11
69.0889 6
69.1722 22
69.2555 3
69.3389 14
69.4222 20
69.5056 25
69.5889 5
69.6722 5
69.7556 23
69.8389 11
69.9223 10
70.0056 14
70.0889 7
70.1723 31
70.2556 8
70.3390 18
70.4223 15
70.5056 28
70.5890 3
70.6723 32
70.7557 11
70.8390 5
70.9223 12
71.0057 1
71.0890 23
71.1724 9
71.2557 10
71.3390 7
71.4224 26
71.5057 11
71.5891 5
71.6724 8
71.7557 18
71.8391 22
71.9224 18
72.0058 6
72.0891 21
72.1724 0
72.2558 11
72.3391 1
72.4225 8
72.5058 13
72.5891 11
72.6725 15
72.7558 8
72.8392 17
72.9225 3
73.0058 6
73.0892 19
73.1725 10
73.2559 6
73.3392 6
73.4225 0
73.5059 2
73.5892 8
73.6726 67
73.7559 1
73.8392 3
73.9226 11
74.0059 37
74.0893 7
74.1726 13
74.2559 2
74.3393 23
74.4226 12
74.5060 13
74.5893 29
74.6726 22
74.7560 8
74.8393 3
74.9227 24
75.0060 3
75.0893 14
75.1727 11
75.2560 12
75.3394 12
75.4227 12
75.5060 5
75.5894 4
75.6727 5
75.7561 18
75.8394 4
75.9227 2
76.0061 31
76.0894 2
76.1728 6
76.2561 8
76.3394 11
76.4228 14
76.5061 23
76.5895 6
76.6728 9
76.7561 11
76.8395 7
76.9228 10
77.0062 7
77.0895 7
77.1728 9
77.2562 5
77.3395 14
77.4229 16
77.5062 8
77.5895 13
77.6729 4
77.7562 22
77.8396 3
77.9229 4
78.0062 14
78.0896 9
78.1729 9
78.2563 20
78.3396 17
78.4229 2
78.5063 3
78.5896 9
78.6730 11
78.7563 5
78.8396 13
78.9230 8
79.0063 7
79.0897 18
79.1730 7
79.2563 4
79.3397 14
79.4230 4
79.5064 7
79.5897 5
79.6730 15
79.7564 13
79.8397 6
79.9231 6
80.0064 24
80.0897 12
80.1731 8
80.2564 13
80.3398 37
80.4231 12
80.5064 16
80.5898 9
80.6731 25
80.7565 2
80.8398 15
80.9231 16
81.0065 11
81.0898 4
81.1732 32
81.2565 22
81.3398 5
81.4232 16
81.5065 23
81.5899 37
81.6732 19
81.7565 7
81.8399 4
81.9232 13
82.0066 13
82.0899 6
82.1732 2
82.2566 4
82.3399 11
82.4233 8
82.5066 5
82.5899 33
82.6733 33
82.7566 13
82.8400 16
82.9233 13
83.0066 17
83.0900 3
83.1733 10
83.2567 5
83.3400 19
83.4233 9
83.5067 7
83.5900 11
83.6734 18
83.7567 3
83.8400 13
83.9234 1
84.0067 9
84.0901 18
84.1734 3
84.2567 23
84.3401 30
84.4234 23
84.5068 4
84.5901 5
84.6734 14
84.7568 9
84.8401 14
84.9235 9
85.0068 12
85.0901 0
85.1735 8
85.2568 8
85.3402 18
85.4235 21
85.5068 5
85.5902 25
85.6735 12
85.7569 13
85.8402 20
85.9235 47
86.0069 5
86.0902 11
86.1736 4
86.2569 11
86.3402 3
86.4236 17
86.5069 14
86.5903 20
86.6736 33
86.7569 16
86.8403 13
86.9236 23
87.0070 10
87.0903 4
87.1736 62
87.2570 35
87.3403 17
87.4237 22
87.5070 15
87.5903 8
87.6737 11
87.7570 11
87.8404 13
87.9237 12
88.0070 4
88.0904 16
88.1737 10
88.2571 29
88.3404 31
88.4237 43
88.5071 27
88.5904 10
88.6738 35
88.7571 37
88.8404 20
88.9238 21
89.0071 20
89.0905 10
89.1738 15
89.2571 31
89.3405 20
89.4238 26
89.5072 41
89.5905 13
89.6738 26
89.7572 22
89.8405 18
89.9239 27
90.0072 28
90.0905 20
90.1739 29
90.2572 21
90.3406 36
90.4239 16
90.5072 21
90.5906 15
90.6739 22
90.7573 21
90.8406 19
90.9239 27
91.0073 19
91.0906 21
91.1740 47
91.2573 24
91.3406 11
91.4240 52
91.5073 44
91.5907 14
91.6740 17
91.7573 15
91.8407 21
91.9240 18
92.0074 20
92.0907 23
92.1740 20
92.2574 29
92.3407 33
92.4241 19
92.5074 42
92.5907 28
92.6741 40
92.7574 21
92.8408 28
92.9241 20
93.0074 21
93.0908 17
93.1741 5
93.2575 75
93.3408 10
93.4241 7
93.5075 11
93.5908 22
93.6742 20
93.7575 25
93.8408 15
93.9242 43
94.0075 23
94.0909 29
94.1742 9
94.2575 9
94.3409 10
94.4242 16
94.5076 8
94.5909 13
94.6742 18
94.7576 26
94.8409 13
94.9243 18
95.0076 1
95.0909 23
95.1743 31
95.2576 12
95.3410 17
95.4243 35
95.5076 38
95.5910 22
95.6743 34
95.7577 23
95.8410 33
95.9243 41
96.0077 20
96.0910 18
96.1744 37
96.2577 29
96.3410 12
96.4244 30
96.5077 11
96.5911 29
96.6744 41
96.7577 33
96.8411 16
96.9244 42
97.0078 13
97.0911 21
97.1744 8
97.2578 20
97.3411 34
97.4245 8
97.5078 26
97.5911 27
97.6745 34
97.7578 31
97.8412 24
97.9245 30
98.0078 36
98.0912 46
98.1745 35
98.2579 52
98.3412 57
98.4245 41
98.5079 55
98.5912 38
98.6746 35
98.7579 32
98.8412 36
98.9246 41
99.0079 46
99.0913 45
99.1746 66
99.2579 49
99.3413 58
99.4246 87
99.5080 71
99.5913 34
99.6746 32
99.7580 31
99.8413 46
99.9247 35
100.0080 32
100.0913 28
100.1747 30
100.2580 39
100.3414 78
100.4247 36
100.5080 21
100.5914 49
100.6747 44
100.7581 33
100.8414 44
100.9247 56
101.0081 33
101.0914 39
101.1748 43
101.2581 40
101.3414 39
101.4248 50
101.5081 52
101.5915 52
101.6748 31
101.7581 41
101.8415 25
101.9248 30
102.0082 48
102.0915 31
102.1748 38
102.2582 33
102.3415 24
102.4249 8
102.5082 28
102.5915 27
102.6749 37
102.7582 13
102.8416 25
102.9249 30
103.0082 16
103.0916 17
103.1749 13
103.2583 32
103.3416 28
103.4249 23
103.5083 37
103.5916 19
103.6750 21
103.7583 34
103.8416 21
103.9250 17
104.0083 21
104.0917 16
104.1750 27
104.2583 15
104.3417 19
104.4250 23
104.5084 18
104.5917 20
104.6750 39
104.7584 14
104.8417 36
104.9251 27
105.0084 38
105.0917 10
105.1751 39
105.2584 19
105.3418 15
105.4251 41
105.5084 27
105.5918 34
105.6751 24
105.7585 25
105.8418 47
105.9251 20
106.0085 39
106.0918 33
106.1752 32
106.2585 21
106.3418 30
106.4252 44
106.5085 32
106.5919 62
106.6752 42
106.7585 41
106.8419 38
106.9252 50
107.0086 52
107.0919 23
107.1752 37
107.2586 49
107.3419 46
107.4253 69
107.5086 54
107.5919 63
107.6753 46
107.7586 58
107.8420 32
107.9253 48
108.0086 38
108.0920 53
108.1753 94
108.2587 78
108.3420 60
108.4253 61
108.5087 80
108.5920 64
108.6754 73
108.7587 94
108.8420 84
108.9254 80
109.0087 65
109.0921 63
109.1754 56
109.2587 64
109.3421 88
109.4254 68
109.5088 78
109.5921 63
109.6754 46
109.7588 74
109.8421 73
109.9255 60
110.0088 60
110.0921 68
110.1755 43
110.2588 38
110.3422 49
110.4255 44
110.5088 56
110.5922 40
110.6755 35
110.7589 29
110.8422 69
110.9255 28
111.0089 26
111.0922 25
111.1756 35
111.2589 13
111.3422 19
111.4256 22
111.5089 18
111.5923 38
111.6756 24
111.7589 28
111.8423 20
111.9256 20
112.0090 27
112.0923 12
112.1756 15
112.2590 17
112.3423 18
112.4257 18
112.5090 17
112.5923 23
112.6757 14
112.7590 20
112.8424 8
112.9257 10
113.0090 21
113.0924 17
113.1757 14
113.2591 7
113.3424 9
113.4257 12
113.5091 7
113.5924 16
113.6758 24
113.7591 20
113.8424 22
113.9258 4
114.0091 6
114.0925 33
114.1758 8
114.2591 2
114.3425 32
114.4258 17
114.5092 17
114.5925 11
114.6758 14
114.7592 29
114.8425 34
114.9259 25
115.0092 32
115.0925 44
115.1759 27
115.2592 24
115.3426 36
115.4259 26
115.5092 53
115.5926 38
115.6759 53
115.7593 46
115.8426 65
115.9259 62
116.0093 47
116.0926 86
116.1760 47
116.2593 55
116.3426 63
116.4260 85
116.5093 61
116.5927 52
116.6760 58
116.7593 38
116.8427 67
116.9260 68
117.0094 55
117.0927 76
117.1760 46
117.2594 74
117.3427 41
117.4261 56
117.5094 70
117.5927 50
117.6761 55
117.7594 58
117.8428 45
117.9261 56
118.0094 77
118.0928 54
118.1761 60
118.2595 78
118.3428 53
118.4261 66
118.5095 62
118.5928 58
118.6762 80
118.7595 89
118.8428 82
118.9262 83
119.0095 60
119.0929 63
119.1762 89
119.2595 89
119.3429 60
119.4262 87
119.5096 84
119.5929 71
119.6762 85
119.7596 68
119.8429 93
119.9263 78
120.0096 69
120.0929 69
120.1763 72
120.2596 70
120.3430 42
120.4263 46
120.5096 38
120.5930 52
120.6763 53
120.7597 29
120.8430 33
120.9263 16
121.0097 38
121.0930 17
121.1764 41
121.2597 25
121.3430 23
121.4264 39
121.5097 34
121.5931 21
121.6764 28
121.7597 18
121.8431 29
121.9264 40
122.0098 14
122.0931 20
122.1764 18
122.2598 11
122.3431 43
122.4265 21
122.5098 72
122.5931 24
122.6765 23
122.7598 33
122.8432 38
122.9265 39
123.0098 18
123.0932 42
123.1765 22
123.2599 20
123.3432 34
123.4265 38
123.5099 23
123.5932 18
123.6766 20
123.7599 33
123.8432 29
123.9266 14
124.0099 34
124.0933 29
124.1766 24
124.2599 11
124.3433 53
124.4266 30
124.5100 68
124.5933 25
124.6766 42
124.7600 34
124.8433 27
124.9267 31
125.0100 25
125.0933 58
125.1767 42
125.2600 88
125.3434 50
125.4267 55
125.5100 68
125.5934 75
125.6767 41
125.7601 84
125.8434 77
125.9267 78
126.0101 80
126.0934 84
126.1768 112
126.2601 81
126.3434 81
126.4268 83
126.5101 85
126.5935 71
126.6768 106
126.7601 106
126.8435 136
126.9268 109
127.0102 78
127.0935 109
127.1768 77
127.2602 104
127.3435 89
127.4269 110
127.5102 80
127.5935 119
127.6769 91
127.7602 113
127.8436 63
127.9269 65
128.0102 104
128.0936 89
128.1769 84
128.2603 107
128.3436 91
128.4269 77
128.5103 78
128.5936 70
128.6770 86
128.7603 54
128.8436 79
128.9270 64
129.0103 58
129.0937 71
129.1770 86
129.2603 72
129.3437 76
129.4270 74
129.5104 53
129.5937 65
129.6770 74
129.7604 44
129.8437 39
129.9271 61
130.0104 66
130.0937 60
130.1771 61
130.2604 63
130.3438 91
130.4271 59
130.5104 56
130.5938 41
130.6771 43
130.7605 74
130.8438 50
130.9271 41
131.0105 30
131.0938 43
131.1772 27
131.2605 36
131.3438 28
131.4272 24
131.5105 41
131.5939 45
131.6772 28
131.7605 32
131.8439 41
131.9272 39
132.0106 47
132.0939 53
132.1772 30
132.2606 46
132.3439 34
132.4273 50
132.5106 34
132.5939 32
132.6773 39
132.7606 21
132.8440 44
132.9273 34
133.0106 47
133.0940 50
133.1773 44
133.2607 50
133.3440 37
133.4273 48
133.5107 55
133.5940 55
133.6774 57
133.7607 69
133.8440 92
133.9274 76
134.0107 76
134.0941 75
134.1774 80
134.2607 86
134.3441 87
134.4274 71
134.5108 108
134.5941 57
134.6774 84
134.7608 102
134.8441 91
134.9275 72
135.0108 98
135.0941 93
135.1775 94
135.2608 93
135.3442 97
135.4275 99
135.5108 92
135.5942 114
135.6775 83
135.7609 101
135.8442 75
135.9275 100
136.0109 101
136.0942 98
136.1776 81
136.2609 116
136.3442 118
136.4276 102
136.5109 104
136.5943 85
136.6776 89
136.7609 98
136.8443 117
136.9276 61
137.0110 73
137.0943 97
137.1776 106
137.2610 116
137.3443 111
137.4277 97
137.5110 105
137.5943 114
137.6777 130
137.7610 143
137.8444 102
137.9277 137
138.0110 116
138.0944 117
138.1777 85
138.2611 143
138.3444 101
138.4277 103
138.5111 78
138.5944 96
138.6778 76
138.7611 107
138.8444 97
138.9278 96
139.0111 113
139.0945 88
139.1778 75
139.2611 56
139.3445 65
139.4278 103
139.5112 65
139.5945 58
139.6778 56
139.7612 59
139.8445 41
139.9279 51
140.0112 74
140.0945 34
140.1779 48
140.2612 35
140.3446 19
140.4279 45
140.5112 13
140.5946 23
140.6779 40
140.7613 22
140.8446 26
140.9279 3
141.0113 59
141.0946 29
141.1780 30
141.2613 27
141.3446 9
141.4280 22
141.5113 24
141.5947 14
141.6780 15
141.7613 28
141.8447 30
141.9280 38
142.0114 33
142.0947 43
142.1780 47
142.2614 46
142.3447 44
142.4281 68
142.5114 54
142.5947 66
142.6781 69
142.7614 59
142.8448 72
142.9281 60
143.0114 52
143.0948 93
143.1781 46
143.2615 66
143.3448 61
143.4281 59
143.5115 107
143.5948 71
143.6782 91
143.7615 81
143.8448 60
143.9282 57
144.0115 80
144.0949 84
144.1782 99
144.2615 76
144.3449 95
144.4282 102
144.5116 106
144.5949 79
144.6782 60
144.7616 95
144.8449 92
144.9283 105
145.0116 125
145.0949 86
145.1783 154
145.2616 103
145.3450 158
145.4283 108
145.5116 96
145.5950 139
145.6783 107
145.7617 117
145.8450 101
145.9283 148
146.0117 122
146.0950 120
146.1784 111
146.2617 123
146.3450 93
146.4284 128
146.5117 171
146.5951 144
146.6784 129
146.7617 138
146.8451 120
146.9284 137
147.0118 117
147.0951 95
147.1784 96
147.2618 109
147.3451 122
147.4285 108
147.5118 90
147.5951 83
147.6785 91
147.7618 86
147.8452 113
147.9285 68
148.0118 84
148.0952 38
148.1785 67
148.2619 52
148.3452 62
148.4285 56
148.5119 48
148.5952 57
148.6786 30
148.7619 33
148.8452 34
148.9286 26
149.0119 30
149.0953 25
149.1786 20
149.2619 22
149.3453 25
149.4286 21
149.5120 27
149.5953 10
149.6786 18
149.7620 27
149.8453 7
149.9287 19
150.0120 18
150.0953 19
150.1787 25
150.2620 43
150.3454 24
150.4287 19
150.5120 22
150.5954 37
150.6787 41
150.7621 41
150.8454 60
150.9287 40
151.0121 43
151.0954 50
151.1788 65
151.2621 64
151.3454 88
151.4288 80
151.5121 79
151.5955 119
151.6788 100
151.7621 312
151.8455 483
151.9288 348
152.0122 271
152.0955 313
152.1788 283
152.2622 258
152.3455 288
152.4289 267
152.5122 257
152.5955 244
152.6789 289
152.7622 294
152.8456 223
152.9289 218
153.0122 232
153.0956 210
153.1789 203
153.2623 242
153.3456 205
153.4289 203
153.5123 260
153.5956 237
153.6790 209
153.7623 234
153.8456 196
153.9290 208
154.0123 227
154.0957 203
154.1790 236
154.2623 233
154.3457 235
154.4290 249
154.5124 218
154.5957 229
154.6790 207
154.7624 233
154.8457 313
154.9291 328
155.0124 238
155.0957 264
155.1791 272
155.2624 300
155.3458 247
155.4291 280
155.5124 238
155.5958 250
155.6791 241
155.7625 224
155.8458 243
155.9291 209
156.0125 212
156.0958 203
156.1792 229
156.2625 182
156.3458 208
156.4292 175
156.5125 184
156.5959 187
156.6792 167
156.7625 147
156.8459 187
156.9292 132
157.0126 123
157.0959 154
157.1792 124
157.2626 118
157.3459 161
157.4293 90
157.5126 135
157.5959 111
157.6793 80
157.7626 70
157.8460 93
157.9293 105
158.0126 81
158.0960 98
158.1793 77
158.2627 107
158.3460 62
158.4293 66
158.5127 96
158.5960 81
158.6794 51
158.7627 60
158.8460 74
158.9294 72
159.0127 65
159.0961 66
159.1794 97
159.2627 73
159.3461 59
159.4294 62
159.5128 120
159.5961 83
159.6794 61
159.7628 67
159.8461 64
159.9295 69
160.0128 82
160.0961 64
160.1795 112
160.2628 66
160.3462 69
160.4295 79
160.5128 120
160.5962 106
160.6795 96
160.7629 144
160.8462 105
160.9295 104
161.0129 115
161.0962 111
161.1796 122
161.2629 109
161.3462 131
161.4296 117
161.5129 156
161.5963 166
161.6796 134
161.7629 113
161.8463 99
161.9296 185
162.0130 147
162.0963 118
162.1796 127
162.2630 145
162.3463 170
162.4297 163
162.5130 154
162.5963 194
162.6797 155
162.7630 202
162.8464 162
162.9297 174
163.0130 177
163.0964 190
163.1797 190
163.2631 189
163.3464 209
163.4297 260
163.5131 239
163.5964 221
163.6798 218
163.7631 179
163.8464 248
163.9298 245
164.0131 257
164.0965 286
164.1798 234
164.2631 283
164.3465 211
164.4298 220
164.5132 254
164.5965 272
164.6798 255
164.7632 263
164.8465 242
164.9299 262
165.0132 267
165.0965 269
165.1799 177
165.2632 212
165.3466 200
165.4299 236
165.5132 186
165.5966 210
165.6799 220
165.7633 165
165.8466 168
165.9299 176
166.0133 169
166.0966 164
166.1800 174
166.2633 124
166.3466 116
166.4300 126
166.5133 117
166.5967 93
166.6800 107
166.7633 99
166.8467 97
166.9300 97
167.0134 68
167.0967 95
167.1800 41
167.2634 71
167.3467 61
167.4301 37
167.5134 54
167.5967 43
167.6801 68
167.7634 77
167.8468 60
167.9301 26
168.0134 66
168.0968 103
168.1801 36
168.2635 25
168.3468 39
168.4301 56
168.5135 36
168.5968 39
168.6802 35
168.7635 104
168.8468 78
168.9302 77
169.0135 113
169.0969 71
169.1802 72
169.2635 75
169.3469 125
169.4302 61
169.5136 153
169.5969 78
169.6802 105
169.7636 79
169.8469 86
169.9303 77
170.0136 119
170.0969 111
170.1803 152
170.2636 159
170.3470 205
170.4303 185
170.5136 143
170.5970 141
170.6803 177
170.7637 146
170.8470 145
170.9303 209
171.0137 197
171.0970 186
171.1804 147
171.2637 160
171.3470 212
171.4304 130
171.5137 162
171.5971 174
171.6804 219
171.7637 163
171.8471 211
171.9304 206
172.0138 194
172.0971 185
172.1804 246
172.2638 253
172.3471 232
172.4305 258
172.5138 207
172.5971 211
172.6805 233
172.7638 223
172.8472 222
172.9305 172
173.0138 199
173.0972 188
173.1805 211
173.2639 198
173.3472 181
173.4305 168
173.5139 159
173.5972 196
173.6806 176
173.7639 205
173.8472 227
173.9306 201
174.0139 195
174.0973 184
174.1806 165
174.2639 197
174.3473 224
174.4306 173
174.5140 140
174.5973 176
174.6806 141
174.7640 179
174.8473 178
174.9307 181
175.0140 135
175.0973 151
175.1807 152
175.2640 110
175.3474 116
175.4307 147
175.5140 160
175.5974 108
175.6807 118
175.7641 100
175.8474 143
175.9307 127
176.0141 70
176.0974 97
176.1808 104
176.2641 85
176.3474 65
176.4308 92
176.5141 82
176.5975 73
176.6808 91
176.7641 100
176.8475 66
176.9308 87
177.0142 65
177.0975 79
177.1808 92
177.2642 83
177.3475 89
177.4309 74
177.5142 104
177.5975 104
177.6809 72
177.7642 99
177.8476 99
177.9309 92
178.0142 114
178.0976 114
178.1809 72
178.2643 126
178.3476 79
178.4309 88
178.5143 101
178.5976 131
178.6810 196
178.7643 112
178.8476 132
178.9310 122
179.0143 119
179.0977 183
179.1810 161
179.2643 157
179.3477 171
179.4310 146
179.5144 119
179.5977 225
179.6810 166
179.7644 138
179.8477 167
179.9311 152
180.0144 199
180.0977 194
180.1811 211
180.2644 220
180.3478 212
180.4311 225
180.5144 290
180.5978 242
180.6811 229
180.7645 253
180.8478 255
180.9311 234
181.0145 246
181.0978 210
181.1812 224
181.2645 272
181.3478 220
181.4312 189
181.5145 213
181.5979 209
181.6812 197
181.7645 203
181.8479 220
181.9312 158
182.0146 219
182.0979 191
182.1812 120
182.2646 182
182.3479 147
182.4313 135
182.5146 163
182.5979 130
182.6813 116
182.7646 100
182.8480 140
182.9313 82
183.0146 116
183.0980 90
183.1813 87
183.2647 94
183.3480 114
183.4313 123
183.5147 74
183.5980 86
183.6814 73
183.7647 96
183.8480 100
183.9314 70
184.0147 84
184.0981 63
184.1814 83
184.2647 54
184.3481 82
184.4314 107
184.5148 75
184.5981 78
184.6814 89
184.7648 74
184.8481 51
184.9315 75
185.0148 77
185.0981 68
185.1815 73
185.2648 57
185.3482 76
185.4315 43
185.5148 56
185.5982 49
185.6815 38
185.7649 75
185.8482 78
185.9315 38
186.0149 32
186.0982 64
186.1816 51
186.2649 59
186.3482 77
186.4316 34
186.5149 53
186.5983 83
186.6816 47
186.7649 91
186.8483 72
186.9316 74
187.0150 44
187.0983 91
187.1816 109
187.2650 78
187.3483 90
187.4317 92
187.5150 125
187.5983 149
187.6817 152
187.7650 181
187.8484 168
187.9317 150
188.0150 131
188.0984 144
188.1817 171
188.2651 167
188.3484 193
188.4317 186
188.5151 170
188.5984 221
188.6818 225
188.7651 211
188.8484 204
188.9318 243
189.0151 221
189.0985 268
189.1818 209
189.2651 225
189.3485 253
189.4318 292
189.5152 237
189.5985 257
189.6818 198
189.7652 268
189.8485 291
189.9319 256
190.0152 221
190.0985 240
190.1819 267
190.2652 286
190.3486 269
190.4319 324
190.5152 306
190.5986 343
190.6819 380
190.7653 349
190.8486 381
190.9319 299
191.0153 304
191.0986 284
191.1820 317
191.2653 373
191.3486 295
191.4320 344
191.5153 315
191.5987 360
191.6820 356
191.7653 389
191.8487 414
191.9320 341
192.0154 360
192.0987 351
192.1820 398
192.2654 382
192.3487 316
192.4321 277
192.5154 358
192.5987 268
192.6821 310
192.7654 234
192.8488 287
192.9321 266
193.0154 192
193.0988 221
193.1821 247
193.2655 190
193.3488 190
193.4321 191
193.5155 160
193.5988 174
193.6822 143
193.7655 149
193.8488 133
193.9322 113
194.0155 149
194.0989 127
194.1822 151
194.2655 75
194.3489 123
194.4322 104
194.5156 121
194.5989 102
194.6822 89
194.7656 135
194.8489 87
194.9323 73
195.0156 60
195.0989 56
195.1823 116
195.2656 110
195.3490 55
195.4323 48
195.5156 74
195.5990 111
195.6823 110
195.7657 105
195.8490 112
195.9323 144
196.0157 118
196.0990 92
196.1824 109
196.2657 122
196.3490 131
196.4324 130
196.5157 110
196.5991 116
196.6824 168
196.7657 168
196.8491 159
196.9324 192
197.0158 217
197.0991 186
197.1824 185
197.2658 210
197.3491 227
197.4325 242
197.5158 288
197.5991 255
197.6825 245
197.7658 286
197.8492 281
197.9325 294
198.0158 324
198.0992 345
198.1825 363
198.2659 338
198.3492 357
198.4325 358
198.5159 358
198.5992 365
198.6826 349
198.7659 340
198.8492 362
198.9326 378
199.0159 377
199.0993 409
199.1826 451
199.2659 387
199.3493 394
199.4326 401
199.5160 380
199.5993 427
199.6826 412
199.7660 420
199.8493 413
199.9327 442
200.0160 336
200.0993 428
200.1827 346
200.2660 355
200.3494 391
200.4327 365
200.5160 403
200.5994 366
200.6827 323
200.7661 339
200.8494 338
200.9327 324
201.0161 305
201.0994 307
201.1828 311
201.2661 296
201.3494 296
201.4328 258
201.5161 276
201.5995 234
201.6828 345
201.7661 273
201.8495 212
201.9328 187
202.0162 215
202.0995 194
202.1828 211
202.2662 180
202.3495 141
202.4329 151
202.5162 167
202.5995 164
202.6829 213
202.7662 158
202.8496 124
202.9329 110
203.0162 147
203.0996 107
203.1829 108
203.2663 99
203.3496 116
203.4329 75
203.5163 47
203.5996 60
203.6830 86
203.7663 98
203.8496 79
203.9330 40
204.0163 27
204.0997 59
204.1830 36
204.2663 45
204.3497 23
204.4330 75
204.5164 62
204.5997 44
204.6830 95
204.7664 39
204.8497 49
204.9331 82
205.0164 63
205.0997 107
205.1831 121
205.2664 127
205.3498 119
205.4331 137
205.5164 175
205.5998 157
205.6831 218
205.7665 228
205.8498 234
205.9331 255
206.0165 255
206.0998 298
206.1832 330
206.2665 317
206.3498 391
206.4332 377
206.5165 438
206.5999 497
206.6832 482
206.7665 515
206.8499 550
206.9332 626
207.0166 564
207.0999 597
207.1832 663
207.2666 634
207.3499 719
207.4333 662
207.5166 645
207.5999 649
207.6833 686
207.7666 775
207.8500 830
207.9333 828
208.0166 734
208.1000 799
208.1833 825
208.2667 835
208.3500 839
208.4333 805
208.5167 838
208.6000 852
208.6834 774
208.7667 804
208.8500 791
208.9334 714
209.0167 673
209.1001 718
209.1834 689
209.2667 682
209.3501 656
209.4334 679
209.5168 597
209.6001 611
209.6834 519
209.7668 519
209.8501 500
209.9335 491
210.0168 422
210.1001 539
210.1835 359
210.2668 371
210.3502 335
210.4335 321
210.5168 337
210.6002 251
210.6835 266
210.7669 217
210.8502 224
210.9335 203
211.0169 200
211.1002 179
211.1836 142
211.2669 167
211.3502 144
211.4336 108
211.5169 106
211.6003 89
211.6836 95
211.7669 94
211.8503 107
211.9336 92
212.0170 88
212.1003 101
212.1836 100
212.2670 111
212.3503 88
212.4337 145
212.5170 149
212.6003 113
212.6837 130
212.7670 170
212.8504 179
212.9337 166
213.0170 217
213.1004 185
213.1837 209
213.2671 222
213.3504 251
213.4337 290
213.5171 327
213.6004 286
213.6838 296
213.7671 345
213.8504 370
213.9338 366
214.0171 393
214.1005 356
214.1838 455
214.2671 487
214.3505 518
214.4338 536
214.5172 600
214.6005 577
214.6838 591
214.7672 587
214.8505 623
214.9339 628
215.0172 689
215.1005 642
215.1839 741
215.2672 771
215.3506 742
215.4339 729
215.5172 765
215.6006 829
215.6839 764
215.7673 832
215.8506 806
215.9339 825
216.0173 855
216.1006 851
216.1840 860
216.2673 879
216.3506 905
216.4340 942
216.5173 905
216.6007 872
216.6840 947
216.7673 816
216.8507 838
216.9340 898
217.0174 871
217.1007 845
217.1840 843
217.2674 756
217.3507 780
217.4341 759
217.5174 683
217.6007 774
217.6841 709
217.7674 662
217.8508 608
217.9341 590
218.0174 659
218.1008 611
218.1841 609
218.2675 549
218.3508 541
218.4341 497
218.5175 482
218.6008 441
218.6842 433
218.7675 463
218.8508 433
218.9342 368
219.0175 348
219.1009 315
219.1842 308
219.2675 289
219.3509 250
219.4342 234
219.5176 186
219.6009 211
219.6842 215
219.7676 194
219.8509 158
219.9343 158
220.0176 141
220.1009 152
220.1843 126
220.2676 137
220.3510 124
220.4343 120
220.5176 118
220.6010 86
220.6843 94
220.7677 109
220.8510 96
220.9343 62
221.0177 71
221.1010 91
221.1844 65
221.2677 105
221.3510 81
221.4344 120
221.5177 92
221.6011 155
221.6844 103
221.7677 124
221.8511 82
221.9344 101
222.0178 81
222.1011 95
222.1844 121
222.2678 94
222.3511 114
222.4345 167
222.5178 164
222.6011 107
222.6845 166
222.7678 154
222.8512 215
222.9345 184
223.0178 187
223.1012 215
223.1845 215
223.2679 279
223.3512 259
223.4345 266
223.5179 297
223.6012 324
223.6846 314
223.7679 373
223.8512 425
223.9346 388
224.0179 381
224.1013 392
224.1846 480
224.2679 479
224.3513 467
224.4346 525
224.5180 582
224.6013 576
224.6846 641
224.7680 642
224.8513 615
224.9347 650
225.0180 761
225.1013 648
225.1847 838
225.2680 813
225.3514 814
225.4347 775
225.5180 788
225.6014 898
225.6847 890
225.7681 874
225.8514 989
225.9347 878
226.0181 931
226.1014 970
226.1848 977
226.2681 868
226.3514 840
226.4348 951
226.5181 1013
226.6015 982
226.6848 998
226.7681 904
226.8515 956
226.9348 838
227.0182 916
227.1015 901
227.1848 809
227.2682 830
227.3515 807
227.4349 881
227.5182 814
227.6015 733
227.6849 714
227.7682 701
227.8516 844
227.9349 653
228.0182 594
228.1016 732
228.1849 621
228.2683 586
228.3516 585
228.4349 544
228.5183 541
228.6016 503
228.6850 516
228.7683 422
228.8516 421
228.9350 409
229.0183 373
229.1017 362
229.1850 377
229.2683 368
229.3517 370
229.4350 326
229.5184 269
229.6017 295
229.6850 310
229.7684 308
229.8517 327
229.9351 262
230.0184 289
230.1017 310
230.1851 272
230.2684 339
230.3518 309
230.4351 291
230.5184 295
230.6018 309
230.6851 249
230.7685 296
230.8518 337
230.9351 297
231.0185 326
231.1018 422
231.1852 336
231.2685 352
231.3518 387
231.4352 356
231.5185 384
231.6019 398
231.6852 407
231.7685 421
231.8519 430
231.9352 445
232.0186 438
232.1019 432
232.1852 457
232.2686 471
232.3519 463
232.4353 538
232.5186 489
232.6019 538
232.6853 479
232.7686 594
232.8520 551
232.9353 527
233.0186 545
233.1020 588
233.1853 546
233.2687 575
233.3520 587
233.4353 647
233.5187 601
233.6020 653
233.6854 650
233.7687 786
233.8520 744
233.9354 752
234.0187 702
234.1021 767
234.1854 717
234.2687 785
234.3521 847
234.4354 802
234.5188 813
234.6021 831
234.6854 864
234.7688 914
234.8521 821
234.9355 898
235.0188 903
235.1021 880
235.1855 899
235.2688 941
235.3522 940
235.4355 1040
235.5188 975
235.6022 1021
235.6855 907
235.7689 1002
235.8522 962
235.9355 999
236.0189 1007
236.1022 940
236.1856 932
236.2689 929
236.3522 923
236.4356 969
236.5189 913
236.6023 811
236.6856 893
236.7689 848
236.8523 829
236.9356 808
237.0190 771
237.1023 731
237.1856 658
237.2690 724
237.3523 674
237.4357 644
237.5190 586
237.6023 601
237.6857 514
237.7690 465
237.8524 525
237.9357 519
238.0190 439
238.1024 417
238.1857 382
238.2691 334
238.3524 290
238.4357 239
238.5191 305
238.6024 269
238.6858 224
238.7691 242
238.8524 214
238.9358 213
239.0191 181
239.1025 216
239.1858 169
239.2691 175
239.3525 204
239.4358 178
239.5192 215
239.6025 220
239.6858 237
239.7692 262
239.8525 287
239.9359 273
240.0192 321
240.1025 398
240.1859 407
240.2692 424
240.3526 478
240.4359 462
240.5192 484
240.6026 517
240.6859 628
240.7693 649
240.8526 641
240.9359 745
241.0193 783
241.1026 799
241.1860 978
241.2693 932
241.3526 976
241.4360 1054
241.5193 1093
241.6027 1149
241.6860 1195
241.7693 1287
241.8527 1328
241.9360 1492
242.0194 1477
242.1027 1628
242.1860 1607
242.2694 1528
242.3527 1646
242.4361 1690
242.5194 1826
242.6027 1810
242.6861 1813
242.7694 1782
242.8528 1815
242.9361 2004
243.0194 1977
243.1028 1884
243.1861 2024
243.2695 2064
243.3528 2136
243.4361 2215
243.5195 2040
243.6028 2213
243.6862 2118
243.7695 2258
243.8528 2048
243.9362 2219
244.0195 2106
244.1029 2296
244.1862 2230
244.2695 2207
244.3529 2100
244.4362 2137
244.5196 2105
244.6029 2167
244.6862 2101
244.7696 2093
244.8529 1961
244.9363 2032
245.0196 1854
245.1029 1938
245.1863 1767
245.2696 1784
245.3530 1747
245.4363 1726
245.5196 1693
245.6030 1643
245.6863 1590
245.7697 1518
245.8530 1506
245.9363 1455
246.0197 1464
246.1030 1347
246.1864 1246
246.2697 1206
246.3530 1136
246.4364 1114
246.5197 1090
246.6031 1093
246.6864 902
246.7697 874
246.8531 899
246.9364 778
247.0198 836
247.1031 758
247.1864 674
247.2698 640
247.3531 587
247.4365 503
247.5198 495
247.6031 488
247.6865 469
247.7698 414
247.8532 389
247.9365 364
248.0198 325
248.1032 300
248.1865 246
248.2699 231
248.3532 257
248.4365 232
248.5199 268
248.6032 215
248.6866 229
248.7699 280
248.8532 250
248.9366 222
249.0199 267
249.1033 266
249.1866 254
249.2699 313
249.3533 281
249.4366 332
249.5200 309
249.6033 373
249.6866 406
249.7700 378
249.8533 387
249.9367 476
250.0200 569
250.1033 544
250.1867 648
250.2700 663
250.3534 711
250.4367 723
250.5200 782
250.6034 842
250.6867 880
250.7701 889
250.8534 1080
250.9367 1102
251.0201 1138
251.1034 1075
251.1868 1179
251.2701 1156
251.3534 1293
251.4368 1447
251.5201 1376
251.6035 1477
251.6868 1577
251.7701 1543
251.8535 1505
251.9368 1691
252.0202 1647
252.1035 1639
252.1868 1607
252.2702 1717
252.3535 1748
252.4369 1833
252.5202 1844
252.6035 1772
252.6869 1797
252.7702 1886
252.8536 1952
252.9369 1886
253.0202 1853
253.1036 1885
253.1869 1896
253.2703 1891
253.3536 1934
253.4369 1899
253.5203 1908
253.6036 1927
253.6870 1831
253.7703 1824
253.8536 1799
253.9370 1757
254.0203 1757
254.1037 1489
254.1870 1658
254.2703 1546
254.3537 1446
254.4370 1392
254.5204 1510
254.6037 1392
254.6870 1342
254.7704 1284
254.8537 1148
254.9371 1146
255.0204 1127
255.1037 1013
255.1871 949
255.2704 898
255.3538 793
255.4371 758
255.5204 715
255.6038 639
255.6871 599
255.7705 475
255.8538 543
255.9371 455
256.0205 425
256.1038 370
256.1872 326
256.2705 224
256.3538 300
256.4372 233
256.5205 190
256.6039 173
256.6872 172
256.7705 105
256.8539 117
256.9372 148
257.0206 132
257.1039 97
257.1872 126
257.2706 148
257.3539 142
257.4373 188
257.5206 191
257.6039 167
257.6873 228
257.7706 282
257.8540 340
257.9373 349
258.0206 385
258.1040 470
258.1873 490
258.2707 586
258.3540 636
258.4373 720
258.5207 904
258.6040 844
258.6874 836
258.7707 976
258.8540 1138
258.9374 1196
259.0207 1241
259.1041 1290
259.1874 1407
259.2707 1591
259.3541 1615
259.4374 1676
259.5208 1793
259.6041 1847
259.6874 1960
259.7708 2016
259.8541 2125
259.9375 2134
260.0208 2296
260.1041 2424
260.1875 2363
260.2708 2389
260.3542 2455
260.4375 2588
260.5208 2825
260.6042 2689
260.6875 2932
260.7709 2737
260.8542 2898
260.9375 2807
261.0209 3040
261.1042 2911
261.1876 2924
261.2709 3117
261.3542 3061
261.4376 3156
261.5209 3037
261.6043 2961
261.6876 3137
261.7709 3038
261.8543 3052
261.9376 2987
262.0210 2920
262.1043 3010
262.1876 3068
262.2710 2874
262.3543 2871
262.4377 2842
262.5210 3010
262.6043 2772
262.6877 2789
262.7710 2733
262.8544 2679
262.9377 2706
263.0210 2514
263.1044 2459
263.1877 2446
263.2711 2420
263.3544 2376
263.4377 2321
263.5211 2145
263.6044 2311
263.6878 2093
263.7711 1953
263.8544 1925
263.9378 1822
264.0211 1767
264.1045 1641
264.1878 1679
264.2711 1659
264.3545 1543
264.4378 1452
264.5212 1416
264.6045 1168
264.6878 1094
264.7712 1054
264.8545 1032
264.9379 1000
265.0212 899
265.1045 741
265.1879 714
265.2712 675
265.3546 595
265.4379 554
265.5212 493
265.6046 424
265.6879 393
265.7713 382
265.8546 284
265.9379 295
266.0213 228
266.1046 226
266.1880 170
266.2713 199
266.3546 158
266.4380 189
266.5213 220
266.6047 182
266.6880 175
266.7713 226
266.8547 256
266.9380 283
267.0214 291
267.1047 396
267.1880 452
267.2714 532
267.3547 576
267.4381 643
267.5214 730
267.6047 880
267.6881 856
267.7714 1025
267.8548 1131
267.9381 1140
268.0214 1382
268.1048 1434
268.1881 1534
268.2715 1765
268.3548 1861
268.4381 1954
268.5215 2092
268.6048 2312
268.6882 2392
268.7715 2475
268.8548 2809
268.9382 2783
269.0215 3073
269.1049 3193
269.1882 3349
269.2715 3385
269.3549 3621
269.4382 3843
269.5216 3953
269.6049 4205
269.6882 4216
269.7716 4280
269.8549 4556
269.9383 4690
270.0216 4947
270.1049 4877
270.1883 5013
270.2716 5180
270.3550 5412
270.4383 5200
270.5216 5542
270.6050 5634
270.6883 5642
270.7717 5445
270.8550 5842
270.9383 5512
271.0217 5594
271.1050 5818
271.1884 5415
271.2717 5677
271.3550 5646
271.4384 5459
271.5217 5398
271.6051 5466
271.6884 5275
271.7717 5531
271.8551 5170
271.9384 5129
272.0218 5090
272.1051 4882
272.1884 4744
272.2718 4663
272.3551 4527
272.4385 4559
272.5218 4206
272.6051 4219
272.6885 4011
272.7718 3835
272.8552 3601
272.9385 3622
273.0218 3358
273.1052 3296
273.1885 3075
273.2719 2801
273.3552 2628
273.4385 2401
273.5219 2152
273.6052 2078
273.6886 1924
273.7719 1675
273.8552 1547
273.9386 1352
274.0219 1130
274.1053 1171
274.1886 969
274.2719 835
274.3553 729
274.4386 557
274.5220 515
274.6053 418
274.6886 368
274.7720 350
274.8553 273
274.9387 227
275.0220 275
275.1053 299
275.1887 324
275.2720 445
275.3554 395
275.4387 535
275.5220 559
275.6054 697
275.6887 844
275.7721 1034
275.8554 1293
275.9387 1439
276.0221 1628
276.1054 1820
276.1888 2149
276.2721 2346
276.3554 2564
276.4388 2873
276.5221 3362
276.6055 3652
276.6888 3834
276.7721 4230
276.8555 4802
276.9388 5012
277.0222 5482
277.1055 5949
277.1888 6268
277.2722 6562
277.3555 6924
277.4389 7507
277.5222 7830
277.6055 8130
277.6889 8740
277.7722 8970
277.8556 9623
277.9389 9751
278.0222 10245
278.1056 10821
278.1889 10854
278.2723 11415
278.3556 12021
278.4389 12316
278.5223 12369
278.6056 12851
278.6890 13399
278.7723 13661
278.8556 13650
278.9390 14508
279.0223 14387
279.1057 14558
279.1890 14582
279.2723 14851
279.3557 14896
279.4390 15196
279.5224 15144
279.6057 15361
279.6890 15194
279.7724 14991
279.8557 14989
279.9391 14901
280.0224 15105
280.1057 14825
280.1891 14930
280.2724 14991
280.3558 14534
280.4391 14182
280.5224 14122
280.6058 14047
280.6891 13754
280.7725 13783
280.8558 13147
280.9391 12698
281.0225 12225
281.1058 12212
281.1892 11923
281.2725 11601
281.3558 10787
281.4392 10308
281.5225 9931
281.6059 9603
281.6892 8859
281.7725 8661
281.8559 8141
281.9392 7805
282.0226 7083
282.1059 6919
282.1892 6361
282.2726 6008
282.3559 5265
282.4393 5058
282.5226 4647
282.6059 4031
282.6893 3652
282.7726 3231
282.8560 2883
282.9393 2533
283.0226 2184
283.1060 1906
283.1893 1598
283.2727 1321
283.3560 1064
283.4393 831
283.5227 754
283.6060 635
283.6894 563
283.7727 411
283.8560 361
283.9394 399
284.0227 444
284.1061 560
284.1894 702
284.2727 828
284.3561 1133
284.4394 1450
284.5228 1732
284.6061 2259
284.6894 2522
284.7728 3003
284.8561 3506
284.9395 4072
285.0228 4856
285.1061 5452
285.1895 6239
285.2728 6997
285.3562 7884
285.4395 8708
285.5228 9727
285.6062 10413
285.6895 10945
285.7729 12533
285.8562 13433
285.9395 14640
286.0229 15553
286.1062 17141
286.1896 18503
286.2729 19364
286.3562 20148
286.4396 21532
286.5229 23097
286.6063 24166
286.6896 25048
286.7729 26247
286.8563 27285
286.9396 28301
287.0230 29558
287.1063 30690
287.1896 31783
287.2730 33041
287.3563 34040
287.4397 35005
287.5230 36131
287.6063 37435
287.6897 38262
287.7730 38999
287.8564 39873
287.9397 40532
288.0230 41464
288.1064 42696
288.1897 43462
288.2731 44415
288.3564 44779
288.4397 44884
288.5231 45744
288.6064 45851
288.6898 46374
288.7731 46968
288.8564 47780
288.9398 46876
289.0231 47099
289.1065 46964
289.1898 46973
289.2731 46602
289.3565 46456
289.4398 45815
289.5232 45682
289.6065 45887
289.6898 45148
289.7732 44501
289.8565 43657
289.9399 43161
290.0232 41929
290.1065 41172
290.1899 40574
290.2732 39116
290.3566 38011
290.4399 36310
290.5232 35794
290.6066 34984
290.6899 33035
290.7733 31985
290.8566 31187
290.9399 29285
291.0233 27636
291.1066 26222
291.1900 24749
291.2733 22906
291.3566 22033
291.4400 20373
291.5233 18465
291.6067 17044
291.6900 15735
291.7733 14056
291.8567 12977
291.9400 11253
292.0234 10011
292.1067 8922
292.1900 7893
292.2734 6700
292.3567 5683
292.4401 4740
292.5234 3922
292.6067 3100
292.6901 2541
292.7734 2040
292.8568 1756
292.9401 1682
293.0234 1762
293.1068 2023
293.1901 2249
293.2735 2941
293.3568 3585
293.4401 4469
293.5235 5485
293.6068 7337
293.6902 9180
293.7735 11324
293.8568 12913
293.9402 15687
294.0235 18585
294.1069 22033
294.1902 24969
294.2735 28541
294.3569 32265
294.4402 36680
294.5236 41423
294.6069 47205
294.6902 52360
294.7736 56904
294.8569 63148
294.9403 69731
295.0236 74928
295.1069 82271
295.1903 88849
295.2736 97117
295.3570 104824
295.4403 113820
295.5236 121933
295.6070 130684
295.6903 139851
295.7737 149063
295.8570 162082
295.9403 175064
296.0237 188155
296.1070 196355
296.1904 208117
296.2737 221758
296.3570 233342
296.4404 248373
296.5237 263780
296.6071 279366
296.6904 288467
296.7737 305988
296.8571 319988
296.9404 337531
297.0238 354613
297.1071 367965
297.1904 384026
297.2738 409123
297.3571 437089
297.4405 440477
297.5238 455900
297.6071 476789
297.6905 496466
297.7738 519958
297.8572 541659
297.9405 560173
298.0238 582384
298.1072 600004
298.1905 617419
298.2739 636615
298.3572 656003
298.4405 666989
298.5239 687532
298.6072 702004
298.6906 721198
298.7739 732512
298.8572 746422
298.9406 762181
299.0239 776937
299.1073 782567
299.1906 799759
299.2739 808373
299.3573 815618
299.4406 821367
299.5240 834719
299.6073 846218
299.6906 855856
299.7740 857883
299.8573 863066
299.9407 868378
300.0240 875464
300.1073 880847
300.1907 882446
300.2740 888395
300.3574 889650
300.4407 889803
300.5240 893284
300.6074 892287
300.6907 897770
300.7741 896373
300.8574 897783
300.9407 899105
301.0241 897364
301.1074 900442
301.1908 900580
301.2741 901449
301.3574 901955
301.4408 901729
301.5241 900762
301.6075 902127
301.6908 903413
301.7741 904180
301.8575 903626
301.9408 904287
302.0242 905574
302.1075 904374
302.1908 904918
302.2742 903858
302.3575 907078
302.4409 909340
302.5242 908787
302.6075 908238
302.6909 906123
302.7742 908316
302.8576 907447
302.9409 906803
303.0242 905195
303.1076 905202
303.1909 902610
303.2743 901341
303.3576 895110
303.4409 891682
303.5243 891722
303.6076 888063
303.6910 884386
303.7743 878184
303.8576 872391
303.9410 867051
304.0243 861469
304.1077 851488
304.1910 842210
304.2743 837243
304.3577 830626
304.4410 815005
304.5244 802863
304.6077 788668
304.6910 781113
304.7744 768188
304.8577 756853
304.9411 735378
305.0244 721742
305.1077 702502
305.1911 683878
305.2744 668326
305.3578 653672
305.4411 630330
305.5244 616421
305.6078 601459
305.6911 582945
305.7745 558038
305.8578 541393
305.9411 518262
306.0245 495771
306.1078 476216
306.1912 456953
306.2745 442448
306.3578 426592
306.4412 404021
306.5245 386570
306.6079 370239
306.6912 349918
306.7745 333468
306.8579 315193
306.9412 296667
307.0246 285975
307.1079 266433
307.1912 251958
307.2746 237543
307.3579 219773
307.4413 207939
307.5246 195625
307.6079 181875
307.6913 167974
307.7746 159142
307.8580 148804
307.9413 135941
308.0246 127563
308.1080 116782
308.1913 108732
308.2747 100090
308.3580 91716
308.4413 84311
308.5247 75788
308.6080 68839
308.6914 62005
308.7747 56954
308.8580 51769
308.9414 46457
309.0247 40431
309.1081 36090
309.1914 31721
309.2747 28193
309.3581 24777
309.4414 20901
309.5248 18235
309.6081 15379
309.6914 13000
309.7748 10476
309.8581 8483
309.9415 6735
310.0248 5004
310.1081 4042
310.1915 2850
310.2748 1994
310.3582 1384
310.4415 783
310.5248 610
310.6082 377
310.6915 346
310.7749 514
310.8582 785
310.9415 1252
311.0249 1758
311.1082 2485
311.1916 3174
311.2749 4182
311.3582 5174
311.4416 6252
311.5249 7015
311.6083 8634
311.6916 9856
311.7749 10766
311.8583 12520
311.9416 13609
312.0250 15341
312.1083 16693
312.1916 18699
312.2750 19501
312.3583 21138
312.4417 22558
312.5250 24013
312.6083 25594
312.6917 27183
312.7750 27890
312.8584 29569
312.9417 31007
313.0250 32207
313.1084 33163
313.1917 34537
313.2751 35553
313.3584 35640
313.4417 37036
313.5251 37490
313.6084 38131
313.6918 39460
313.7751 39470
313.8584 40381
313.9418 40694
314.0251 41466
314.1085 42349
314.1918 42152
314.2751 41441
314.3585 41856
314.4418 42103
314.5252 41122
314.6085 41869
314.6918 42124
314.7752 41124
314.8585 41364
314.9419 41444
315.0252 40462
315.1085 39928
315.1919 38861
315.2752 39467
315.3586 37610
315.4419 37877
315.5252 36494
315.6086 36136
315.6919 34980
315.7753 34027
315.8586 32942
315.9419 32500
316.0253 30937
316.1086 31079
316.1920 28857
316.2753 27407
316.3586 27000
316.4420 25835
316.5253 24571
316.6087 23532
316.6920 22892
316.7753 21268
316.8587 19908
316.9420 19218
317.0254 18167
317.1087 17060
317.1920 15515
317.2754 14804
317.3587 13775
317.4421 12629
317.5254 11747
317.6087 10768
317.6921 10002
317.7754 8927
317.8588 8355
317.9421 7357
318.0254 6560
318.1088 6031
318.1921 5074
318.2755 4657
318.3588 3943
318.4421 3421
318.5255 3051
318.6088 2421
318.6922 2097
318.7755 1685
318.8588 1346
318.9422 1056
319.0255 833
319.1089 593
319.1922 426
319.2755 347
319.3589 240
319.4422 276
319.5256 256
319.6089 271
319.6922 370
319.7756 406
319.8589 681
319.9423 862
320.0256 1016
320.1089 1287
320.1923 1533
320.2756 1792
320.3590 2039
320.4423 2573
320.5256 2817
320.6090 3357
320.6923 3616
320.7757 3760
320.8590 4367
320.9423 4700
321.0257 5174
321.1090 5667
321.1924 6077
321.2757 6391
321.3590 6900
321.4424 7698
321.5257 7777
321.6091 8401
321.6924 9108
321.7757 9351
321.8591 9528
321.9424 10014
322.0258 10580
322.1091 10735
322.1924 11197
322.2758 11524
322.3591 12181
322.4425 12416
322.5258 12511
322.6091 12686
322.6925 12890
322.7758 13165
322.8592 13552
322.9425 13596
323.0258 13834
323.1092 13685
323.1925 14292
323.2759 14320
323.3592 14211
323.4425 14349
323.5259 14150
323.6092 14267
323.6926 14263
323.7759 13883
323.8592 14249
323.9426 14217
324.0259 13970
324.1093 13745
324.1926 12982
324.2759 13377
324.3593 13433
324.4426 12866
324.5260 12682
324.6093 12478
324.6926 12576
324.7760 12004
324.8593 11967
324.9427 11279
325.0260 11161
325.1093 10832
325.1927 10649
325.2760 10275
325.3594 10002
325.4427 9292
325.5260 9157
325.6094 8676
325.6927 8303
325.7761 7996
325.8594 7725
325.9427 7226
326.0261 6814
326.1094 6762
326.1928 6090
326.2761 5690
326.3594 5635
326.4428 5060
326.5261 4953
326.6095 4473
326.6928 4244
326.7761 3822
326.8595 3427
326.9428 3288
327.0262 2967
327.1095 2780
327.1928 2409
327.2762 2172
327.3595 1934
327.4429 1680
327.5262 1547
327.6095 1351
327.6929 1147
327.7762 905
327.8596 825
327.9429 694
328.0262 583
328.1096 440
328.1929 351
328.2763 310
328.3596 236
328.4429 161
328.5263 210
328.6096 144
328.6930 133
328.7763 141
328.8596 133
328.9430 234
329.0263 263
329.1097 299
329.1930 397
329.2763 524
329.3597 545
329.4430 734
329.5264 812
329.6097 1008
329.6930 1034
329.7764 1196
329.8597 1511
329.9431 1607
330.0264 1704
330.1097 1852
330.1931 2139
330.2764 2267
330.3598 2484
330.4431 2599
330.5264 3030
330.6098 3328
330.6931 3329
330.7765 3455
330.8598 3522
330.9431 3930
331.0265 3996
331.1098 4298
331.1932 4468
331.2765 4713
331.3598 4902
331.4432 5041
331.5265 5116
331.6099 5330
331.6932 5358
331.7765 5709
331.8599 5750
331.9432 5979
332.0266 5948
332.1099 6306
332.1932 6484
332.2766 6537
332.3599 6308
332.4433 6573
332.5266 6601
332.6099 6632
332.6933 6842
332.7766 6753
332.8600 6864
332.9433 6932
333.0266 6592
333.1100 6902
333.1933 6858
333.2767 6557
333.3600 6664
333.4433 6658
333.5267 6452
333.6100 6274
333.6934 6330
333.7767 6235
333.8600 6048
333.9434 5839
334.0267 5875
334.1101 5800
334.1934 5606
334.2767 5227
334.3601 5133
334.4434 5136
334.5268 4674
334.6101 4572
334.6934 4459
334.7768 4501
334.8601 3946
334.9435 3998
335.0268 3845
335.1101 3666
335.1935 3488
335.2768 3273
335.3602 2913
335.4435 2770
335.5268 2708
335.6102 2461
335.6935 2308
335.7769 2017
335.8602 1974
335.9435 1888
336.0269 1654
336.1102 1474
336.1936 1235
336.2769 1204
336.3602 1086
336.4436 902
336.5269 824
336.6103 714
336.6936 642
336.7769 553
336.8603 447
336.9436 370
337.0270 280
337.1103 236
337.1936 233
337.2770 196
337.3603 181
337.4437 149
337.5270 119
337.6103 124
337.6937 140
337.7770 201
337.8604 234
337.9437 260
338.0270 280
338.1104 348
338.1937 442
338.2771 508
338.3604 582
338.4437 689
338.5271 823
338.6104 915
338.6938 989
338.7771 1093
338.8604 1269
338.9438 1329
339.0271 1456
339.1105 1712
339.1938 1754
339.2771 1984
339.3605 2098
339.4438 2179
339.5272 2288
339.6105 2584
339.6938 2849
339.7772 3008
339.8605 2984
339.9439 3135
340.0272 3520
340.1105 3442
340.1939 3587
340.2772 3621
340.3606 3822
340.4439 3897
340.5272 4149
340.6106 4179
340.6939 4155
340.7773 4349
340.8606 4303
340.9439 4470
341.0273 4624
341.1106 4708
341.1940 4721
341.2773 4712
341.3606 4809
341.4440 4759
341.5273 4712
341.6107 4944
341.6940 4803
341.7773 4664
341.8607 4772
341.9440 4866
342.0274 4684
342.1107 4481
342.1940 4580
342.2774 4745
342.3607 4492
342.4441 4407
342.5274 4336
342.6107 4155
342.6941 4029
342.7774 4074
342.8608 3955
342.9441 3849
343.0274 3657
343.1108 3603
343.1941 3437
343.2775 3305
343.3608 3193
343.4441 3086
343.5275 2886
343.6108 2765
343.6942 2814
343.7775 2569
343.8608 2368
343.9442 2362
344.0275 2276
344.1109 2031
344.1942 1805
344.2775 1695
344.3609 1620
344.4442 1456
344.5276 1365
344.6109 1354
344.6942 1161
344.7776 1039
344.8609 1044
344.9443 829
345.0276 732
345.1109 694
345.1943 574
345.2776 539
345.3610 490
345.4443 416
345.5276 368
345.6110 295
345.6943 253
345.7777 201
345.8610 191
345.9443 135
346.0277 90
346.1110 140
346.1944 81
346.2777 86
346.3610 77
346.4444 60
346.5277 73
346.6111 76
346.6944 94
346.7777 115
346.8611 173
346.9444 155
347.0278 236
347.1111 238
347.1944 294
347.2778 351
347.3611 377
347.4445 411
347.5278 504
347.6111 489
347.6945 597
347.7778 698
347.8612 753
347.9445 837
348.0278 834
348.1112 947
348.1945 1098
348.2779 1152
348.3612 1163
348.4445 1323
348.5279 1361
348.6112 1473
348.6946 1513
348.7779 1577
348.8612 1639
348.9446 1794
349.0279 1829
349.1113 1837
349.1946 2060
349.2779 2213
349.3613 2325
349.4446 2398
349.5280 2364
349.6113 2213
349.6946 2499
349.7780 2506
349.8613 2650
349.9447 2758
350.0280 2726
350.1113 2779
350.1947 2797
350.2780 2840
350.3614 2894
350.4447 2920
350.5280 2939
350.6114 3105
350.6947 3024
350.7781 3125
350.8614 2959
350.9447 3050
351.0281 3075
351.1114 3051
351.1948 3272
351.2781 3136
351.3614 3135
351.4448 3237
351.5281 3062
351.6115 3184
351.6948 2906
351.7781 2855
351.8615 2865
351.9448 2830
352.0282 2795
352.1115 2803
352.1948 2634
352.2782 2585
352.3615 2380
352.4449 2602
352.5282 2436
352.6115 2344
352.6949 2088
352.7782 2123
352.8616 1939
352.9449 1861
353.0282 1826
353.1116 1763
353.1949 1663
353.2783 1644
353.3616 1399
353.4449 1340
353.5283 1170
353.6116 1143
353.6950 1099
353.7783 929
353.8616 902
353.9450 752
354.0283 751
354.1117 584
354.1950 578
354.2783 531
354.3617 444
354.4450 371
354.5284 339
354.6117 298
354.6950 204
354.7784 189
354.8617 159
354.9451 139
355.0284 77
355.1117 99
355.1951 80
355.2784 49
355.3618 67
355.4451 60
355.5284 64
355.6118 104
355.6951 74
355.7785 97
355.8618 113
355.9451 162
356.0285 198
356.1118 239
356.1952 251
356.2785 299
356.3618 324
356.4452 387
356.5285 408
356.6119 466
356.6952 504
356.7785 531
356.8619 586
356.9452 663
357.0286 693
357.1119 688
357.1952 874
357.2786 896
357.3619 911
357.4453 912
357.5286 1018
357.6119 967
357.6953 1006
357.7786 1086
357.8620 1149
357.9453 1110
358.0286 1272
358.1120 1150
358.1953 1199
358.2787 1235
358.3620 1251
358.4453 1205
358.5287 1296
358.6120 1293
358.6954 1206
358.7787 1375
358.8620 1336
358.9454 1357
359.0287 1290
359.1121 1250
359.1954 1313
359.2787 1305
359.3621 1415
359.4454 1352
359.5288 1304
359.6121 1325
359.6954 1331
359.7788 1307
359.8621 1328
359.9455 1302
360.0288 1263
360.1121 1214
360.1955 1188
360.2788 1219
360.3622 1233
360.4455 1148
360.5288 1233
360.6122 1127
360.6955 1106
360.7789 1072
360.8622 1131
360.9455 1090
361.0289 1047
361.1122 961
361.1956 1037
361.2789 907
361.3622 806
361.4456 860
361.5289 877
361.6123 802
361.6956 831
361.7789 735
361.8623 730
361.9456 776
362.0290 680
362.1123 660
362.1956 658
362.2790 647
362.3623 587
362.4457 596
362.5290 547
362.6123 513
362.6957 552
362.7790 530
362.8624 502
362.9457 390
363.0290 449
363.1124 439
363.1957 436
363.2791 424
363.3624 366
363.4457 363
363.5291 365
363.6124 289
363.6958 232
363.7791 300
363.8624 258
363.9458 187
364.0291 153
364.1125 136
364.1958 165
364.2791 123
364.3625 105
364.4458 112
364.5292 82
364.6125 90
364.6958 49
364.7792 68
364.8625 82
364.9459 63
365.0292 42
365.1125 56
365.1959 46
365.2792 67
365.3626 83
365.4459 80
365.5292 80
365.6126 116
365.6959 132
365.7793 133
365.8626 131
365.9459 162
366.0293 200
366.1126 205
366.1960 221
366.2793 265
366.3626 274
366.4460 296
366.5293 362
366.6127 307
366.6960 402
366.7793 405
366.8627 428
366.9460 444
367.0294 479
367.1127 509
367.1960 501
367.2794 510
367.3627 544
367.4461 603
367.5294 609
367.6127 542
367.6961 602
367.7794 594
367.8628 604
367.9461 607
368.0294 647
368.1128 632
368.1961 571
368.2795 551
368.3628 552
368.4461 652
368.5295 616
368.6128 532
368.6962 587
368.7795 586
368.8628 554
368.9462 558
369.0295 530
369.1129 589
369.1962 494
369.2795 548
369.3629 482
369.4462 449
369.5296 516
369.6129 473
369.6962 394
369.7796 394
369.8629 438
369.9463 410
370.0296 395
370.1129 399
370.1963 378
370.2796 348
370.3630 341
370.4463 318
370.5296 288
370.6130 275
370.6963 278
370.7797 301
370.8630 250
370.9463 214
371.0297 227
371.1130 202
371.1964 166
371.2797 204
371.3630 170
371.4464 129
371.5297 140
371.6131 120
371.6964 116
371.7797 127
371.8631 112
371.9464 100
372.0298 105
372.1131 79
372.1964 97
372.2798 74
372.3631 86
372.4465 79
372.5298 96
372.6131 49
372.6965 68
372.7798 56
372.8632 43
372.9465 56
373.0298 71
373.1132 40
373.1965 62
373.2799 75
373.3632 55
373.4465 60
373.5299 68
373.6132 96
373.6966 86
373.7799 113
373.8632 110
373.9466 140
374.0299 155
374.1133 155
374.1966 204
374.2799 177
374.3633 174
374.4466 167
374.5300 180
374.6133 212
374.6966 266
374.7800 246
374.8633 284
374.9467 272
375.0300 394
375.1133 338
375.1967 352
375.2800 396
375.3634 466
375.4467 439
375.5300 379
375.6134 480
375.6967 472
375.7801 507
375.8634 462
375.9467 500
376.0301 561
376.1134 485
376.1968 579
376.2801 599
376.3634 590
376.4468 661
376.5301 569
376.6135 599
376.6968 637
376.7801 702
376.8635 590
376.9468 685
377.0302 644
377.1135 612
377.1968 610
377.2802 666
377.3635 604
377.4469 679
377.5302 549
377.6135 594
377.6969 612
377.7802 539
377.8636 457
377.9469 495
378.0302 489
378.1136 520
378.1969 458
378.2803 418
378.3636 427
378.4469 346
378.5303 368
378.6136 342
378.6970 361
378.7803 361
378.8636 317
378.9470 297
379.0303 296
379.1137 247
379.1970 285
379.2803 216
379.3637 226
379.4470 228
379.5304 184
379.6137 184
379.6970 167
379.7804 153
379.8637 155
379.9471 137
380.0304 113
380.1137 124
380.1971 135
380.2804 104
380.3638 82
380.4471 84
380.5304 89
380.6138 113
380.6971 53
380.7805 61
380.8638 106
380.9471 82
381.0305 58
381.1138 73
381.1972 83
381.2805 78
381.3638 64
381.4472 67
381.5305 55
381.6139 39
381.6972 55
381.7805 84
381.8639 71
381.9472 44
382.0306 58
382.1139 74
382.1972 93
382.2806 83
382.3639 79
382.4473 66
382.5306 97
382.6139 92
382.6973 136
382.7806 121
382.8640 109
382.9473 125
383.0306 161
383.1140 186
383.1973 154
383.2807 198
383.3640 180
383.4473 211
383.5307 216
383.6140 253
383.6974 271
383.7807 240
383.8640 258
383.9474 341
384.0307 319
384.1141 295
384.1974 361
384.2807 385
384.3641 385
384.4474 420
384.5308 448
384.6141 464
384.6974 456
384.7808 438
384.8641 515
384.9475 529
385.0308 517
385.1141 513
385.1975 522
385.2808 569
385.3642 566
385.4475 533
385.5308 542
385.6142 631
385.6975 577
385.7809 581
385.8642 566
385.9475 604
386.0309 534
386.1142 539
386.1976 518
386.2809 549
386.3642 609
386.4476 574
386.5309 539
386.6143 534
386.6976 538
386.7809 554
386.8643 401
386.9476 449
387.0310 499
387.1143 431
387.1976 415
387.2810 430
387.3643 441
387.4477 402
387.5310 333
387.6143 342
387.6977 368
387.7810 342
387.8644 331
387.9477 330
388.0310 317
388.1144 361
388.1977 361
388.2811 313
388.3644 297
388.4477 327
388.5311 309
388.6144 271
388.6978 236
388.7811 259
388.8644 278
388.9478 263
389.0311 263
389.1145 247
389.1978 239
389.2811 218
389.3645 240
389.4478 222
389.5312 241
389.6145 224
389.6978 205
389.7812 227
389.8645 163
389.9479 200
390.0312 157
390.1145 163
390.1979 171
390.2812 158
390.3646 122
390.4479 129
390.5312 162
390.6146 114
390.6979 98
390.7813 58
390.8646 67
390.9479 117
391.0313 89
391.1146 65
391.1980 71
391.2813 66
391.3646 99
391.4480 39
391.5313 60
391.6147 55
391.6980 64
391.7813 63
391.8647 71
391.9480 72
392.0314 58
392.1147 59
392.1980 78
392.2814 75
392.3647 75
392.4481 122
392.5314 93
392.6147 102
392.6981 139
392.7814 160
392.8648 145
392.9481 137
393.0314 164
393.1148 173
393.1981 178
393.2815 193
393.3648 199
393.4481 225
393.5315 249
393.6148 234
393.6982 246
393.7815 327
393.8648 276
393.9482 243
394.0315 269
394.1149 316
394.1982 339
394.2815 274
394.3649 339
394.4482 365
394.5316 350
394.6149 289
394.6982 382
394.7816 395
394.8649 417
394.9483 387
395.0316 439
395.1149 414
395.1983 410
395.2816 358
395.3650 406
395.4483 423
395.5316 466
395.6150 400
395.6983 440
395.7817 418
395.8650 401
395.9483 360
396.0317 423
396.1150 450
396.1984 415
396.2817 399
396.3650 393
396.4484 439
396.5317 449
396.6151 471
396.6984 456
396.7817 453
396.8651 418
396.9484 439
397.0318 485
397.1151 463
397.1984 441
397.2818 435
397.3651 422
397.4485 401
397.5318 455
397.6151 359
397.6985 413
397.7818 374
397.8652 360
397.9485 357
398.0318 344
398.1152 357
398.1985 357
398.2819 291
398.3652 300
398.4485 261
398.5319 283
398.6152 240
398.6986 257
398.7819 208
398.8652 238
398.9486 181
399.0319 194
399.1153 161
399.1986 184
399.2819 160
399.3653 147
399.4486 128
399.5320 119
399.6153 129
399.6986 104
399.7820 61
399.8653 79
399.9487 68
400.0320 64
400.1153 46
400.1987 42
400.2820 38
400.3654 39
400.4487 29
400.5320 15
400.6154 15
400.6987 47
400.7821 29
400.8654 48
400.9487 40
401.0321 35
401.1154 46
401.1988 52
401.2821 79
401.3654 71
401.4488 113
401.5321 111
401.6155 105
401.6988 172
401.7821 170
401.8655 170
401.9488 144
402.0322 147
402.1155 189
402.1988 204
402.2822 181
402.3655 191
402.4489 264
402.5322 258
402.6155 271
402.6989 283
402.7822 271
402.8656 317
402.9489 276
403.0322 355
403.1156 305
403.1989 282
403.2823 356
403.3656 363
403.4489 375
403.5323 355
403.6156 395
403.6990 378
403.7823 389
403.8656 438
403.9490 429
404.0323 417
404.1157 419
404.1990 501
404.2823 467
404.3657 435
404.4490 515
404.5324 494
404.6157 472
404.6990 538
404.7824 511
404.8657 445
404.9491 560
405.0324 509
405.1157 587
405.1991 499
405.2824 561
405.3658 517
405.4491 541
405.5324 533
405.6158 513
405.6991 520
405.7825 475
405.8658 567
405.9491 509
406.0325 535
406.1158 499
406.1992 515
406.2825 497
406.3658 384
406.4492 381
406.5325 409
406.6159 326
406.6992 355
406.7825 310
406.8659 287
406.9492 252
407.0326 290
407.1159 244
407.1992 208
407.2826 233
407.3659 199
407.4493 177
407.5326 164
407.6159 118
407.6993 114
407.7826 101
407.8660 86
407.9493 77
408.0326 61
408.1160 70
408.1993 65
408.2827 55
408.3660 45
408.4493 38
408.5327 50
408.6160 43
408.6994 85
408.7827 50
408.8660 29
408.9494 40
409.0327 56
409.1161 51
409.1994 59
409.2827 88
409.3661 56
409.4494 74
409.5328 100
409.6161 72
409.6994 107
409.7828 74
409.8661 75
409.9495 115
410.0328 95
410.1161 129
410.1995 91
410.2828 97
410.3662 115
410.4495 125
410.5328 136
410.6162 162
410.6995 146
410.7829 126
410.8662 134
410.9495 161
411.0329 212
411.1162 173
411.1996 181
411.2829 187
411.3662 195
411.4496 280
411.5329 225
411.6163 246
411.6996 253
411.7829 294
411.8663 319
411.9496 277
412.0330 322
412.1163 290
412.1996 310
412.2830 403
412.3663 339
412.4497 399
412.5330 412
412.6163 377
412.6997 402
412.7830 462
412.8664 413
412.9497 356
413.0330 381
413.1164 401
413.1997 461
413.2831 453
413.3664 416
413.4497 431
413.5331 385
413.6164 443
413.6998 351
413.7831 380
413.8664 364
413.9498 361
414.0331 298
414.1165 322
414.1998 279
414.2831 294
414.3665 276
414.4498 282
414.5332 261
414.6165 270
414.6998 238
414.7832 247
414.8665 261
414.9499 190
415.0332 159
415.1165 207
415.1999 193
415.2832 201
415.3666 176
415.4499 190
415.5332 201
415.6166 153
415.6999 162
415.7833 140
415.8666 162
415.9499 124
416.0333 132
416.1166 100
416.2000 113
416.2833 110
416.3666 71
416.4500 98
416.5333 92
416.6167 80
416.7000 67
416.7833 74
416.8667 50
416.9500 54
417.0334 53
417.1167 30
417.2000 44
417.2834 56
417.3667 48
417.4501 23
417.5334 32
417.6167 12
417.7001 19
417.7834 32
417.8668 38
417.9501 40
418.0334 24
418.1168 61
418.2001 55
418.2835 33
418.3668 57
418.4501 80
418.5335 86
418.6168 91
418.7002 97
418.7835 110
418.8668 122
418.9502 108
419.0335 111
419.1169 193
419.2002 169
419.2835 209
419.3669 199
419.4502 216
419.5336 219
419.6169 186
419.7002 217
419.7836 277
419.8669 190
419.9503 222
420.0336 243
420.1169 320
420.2003 262
420.2836 265
420.3670 288
420.4503 271
420.5336 241
420.6170 319
420.7003 249
420.7837 258
420.8670 297
420.9503 255
421.0337 289
421.1170 272
421.2004 289
421.2837 311
421.3670 245
421.4504 316
421.5337 336
421.6171 269
421.7004 271
421.7837 295
421.8671 308
421.9504 303
422.0338 331
422.1171 356
422.2004 310
422.2838 337
422.3671 352
422.4505 316
422.5338 375
422.6171 360
422.7005 384
422.7838 332
422.8672 392
422.9505 359
423.0338 403
423.1172 358
423.2005 384
423.2839 322
423.3672 402
423.4505 323
423.5339 356
423.6172 337
423.7006 289
423.7839 305
423.8672 327
423.9506 313
424.0339 329
424.1173 264
424.2006 284
424.2839 259
424.3673 261
424.4506 262
424.5340 308
424.6173 252
424.7006 159
424.7840 223
424.8673 173
424.9507 147
425.0340 165
425.1173 140
425.2007 142
425.2840 150
425.3674 156
425.4507 163
425.5340 113
425.6174 128
425.7007 89
425.7841 112
425.8674 98
425.9507 119
426.0341 86
426.1174 93
426.2008 101
426.2841 93
426.3674 66
426.4508 78
426.5341 62
426.6175 74
426.7008 70
426.7841 60
426.8675 102
426.9508 54
427.0342 61
427.1175 46
427.2008 63
427.2842 33
427.3675 35
427.4509 50
427.5342 64
427.6175 41
427.7009 36
427.7842 27
427.8676 36
427.9509 44
428.0342 28
428.1176 54
428.2009 27
428.2843 39
428.3676 46
428.4509 54
428.5343 39
428.6176 28
428.7010 37
428.7843 64
428.8676 67
428.9510 77
429.0343 81
429.1177 129
429.2010 77
429.2843 107
429.3677 98
429.4510 140
429.5344 150
429.6177 143
429.7010 133
429.7844 133
429.8677 155
429.9511 172
430.0344 183
430.1177 160
430.2011 174
430.2844 201
430.3678 168
430.4511 206
430.5344 165
430.6178 182
430.7011 179
430.7845 169
430.8678 183
430.9511 199
431.0345 171
431.1178 170
431.2012 157
431.2845 136
431.3678 188
431.4512 196
431.5345 150
431.6179 145
431.7012 159
431.7845 208
431.8679 156
431.9512 161
432.0346 145
432.1179 138
432.2012 186
432.2846 170
432.3679 149
432.4513 152
432.5346 158
432.6179 118
432.7013 73
432.7846 159
432.8680 160
432.9513 119
433.0346 107
433.1180 119
433.2013 113
433.2847 90
433.3680 76
433.4513 85
433.5347 85
433.6180 76
433.7014 78
433.7847 38
433.8680 100
433.9514 66
434.0347 85
434.1181 42
434.2014 78
434.2847 34
434.3681 32
434.4514 28
434.5348 29
434.6181 18
434.7014 13
434.7848 48
434.8681 39
434.9515 15
435.0348 17
435.1181 14
435.2015 24
435.2848 24
435.3682 19
435.4515 22
435.5348 32
435.6182 41
435.7015 33
435.7849 46
435.8682 17
435.9515 28
436.0349 46
436.1182 26
436.2016 45
436.2849 29
436.3682 63
436.4516 53
436.5349 60
436.6183 75
436.7016 50
436.7849 59
436.8683 49
436.9516 36
437.0350 51
437.1183 73
437.2016 42
437.2850 79
437.3683 45
437.4517 125
437.5350 61
437.6183 52
437.7017 75
437.7850 79
437.8684 95
437.9517 90
438.0350 85
438.1184 82
438.2017 87
438.2851 82
438.3684 112
438.4517 109
438.5351 109
438.6184 133
438.7018 96
438.7851 120
438.8684 179
438.9518 130
439.0351 151
439.1185 127
439.2018 179
439.2851 134
439.3685 139
439.4518 123
439.5352 167
439.6185 155
439.7018 160
439.7852 108
439.8685 123
439.9519 152
440.0352 146
440.1185 163
440.2019 139
440.2852 136
440.3686 157
440.4519 155
440.5352 119
440.6186 130
440.7019 137
440.7853 149
440.8686 116
440.9519 125
441.0353 130
441.1186 148
441.2020 160
441.2853 156
441.3686 159
441.4520 151
441.5353 142
441.6187 156
441.7020 140
441.7853 179
441.8687 202
441.9520 185
442.0354 161
442.1187 162
442.2020 143
442.2854 193
442.3687 200
442.4521 194
442.5354 199
442.6187 185
442.7021 193
442.7854 175
442.8688 172
442.9521 222
443.0354 179
443.1188 156
443.2021 166
443.2855 155
443.3688 168
443.4521 123
443.5355 146
443.6188 106
443.7022 79
443.7855 137
443.8688 97
443.9522 72
444.0355 93
444.1189 87
444.2022 111
444.2855 73
444.3689 49
444.4522 56
444.5356 60
444.6189 67
444.7022 46
444.7856 54
444.8689 23
444.9523 33
445.0356 31
445.1189 55
445.2023 36
445.2856 18
445.3690 18
445.4523 25
445.5356 30
445.6190 32
445.7023 16
445.7857 31
445.8690 17
445.9523 28
446.0357 37
446.1190 25
446.2024 43
446.2857 50
446.3690 26
446.4524 40
446.5357 37
446.6191 50
446.7024 37
446.7857 55
446.8691 52
446.9524 54
447.0358 92
447.1191 71
447.2024 79
447.2858 59
447.3691 87
447.4525 77
447.5358 133
447.6191 127
447.7025 98
447.7858 96
447.8692 144
447.9525 122
448.0358 112
448.1192 131
448.2025 147
448.2859 130
448.3692 167
448.4525 166
448.5359 178
448.6192 182
448.7026 133
448.7859 205
448.8692 155
448.9526 166
449.0359 197
449.1193 142
449.2026 147
449.2859 170
449.3693 152
449.4526 159
449.5360 162
449.6193 163
449.7026 185
449.7860 142
449.8693 138
449.9527 191
450.0360 157
450.1193 176
450.2027 184
450.2860 211
450.3694 197
450.4527 166
450.5360 133
450.6194 139
450.7027 156
450.7861 111
450.8694 117
450.9527 122
451.0361 120
451.1194 128
451.2028 125
451.2861 92
451.3694 83
451.4528 111
451.5361 72
451.6195 76
451.7028 119
451.7861 69
451.8695 61
451.9528 87
452.0362 51
452.1195 55
452.2028 49
452.2862 55
452.3695 33
452.4529 47
452.5362 40
452.6195 21
452.7029 52
452.7862 29
452.8696 30
452.9529 27
453.0362 55
453.1196 21
453.2029 33
453.2863 20
453.3696 46
453.4529 19
453.5363 21
453.6196 58
453.7030 19
453.7863 39
453.8696 41
453.9530 21
454.0363 17
454.1197 33
454.2030 33
454.2863 39
454.3697 19
454.4530 13
454.5364 28
454.6197 42
454.7030 40
454.7864 28
454.8697 15
454.9531 36
455.0364 24
455.1197 18
455.2031 23
455.2864 28
455.3698 55
455.4531 31
455.5364 43
455.6198 55
455.7031 59
455.7865 41
455.8698 52
455.9531 57
456.0365 42
456.1198 53
456.2032 79
456.2865 91
456.3698 66
456.4532 76
456.5365 90
456.6199 72
456.7032 84
456.7865 68
456.8699 61
456.9532 77
457.0366 88
457.1199 86
457.2032 116
457.2866 78
457.3699 89
457.4533 117
457.5366 87
457.6199 68
457.7033 63
457.7866 121
457.8700 102
457.9533 119
458.0366 118
458.1200 118
458.2033 156
458.2867 134
458.3700 110
458.4533 105
458.5367 147
458.6200 186
458.7034 156
458.7867 183
458.8700 158
458.9534 163
459.0367 169
459.1201 223
459.2034 180
459.2867 197
459.3701 193
459.4534 161
459.5368 161
459.6201 177
459.7034 178
459.7868 199
459.8701 175
459.9535 159
460.0368 155
460.1201 165
460.2035 157
460.2868 193
460.3702 161
460.4535 135
460.5368 96
460.6202 69
460.7035 102
460.7869 139
460.8702 75
460.9535 99
461.0369 113
461.1202 84
461.2036 86
461.2869 71
461.3702 91
461.4536 78
461.5369 63
461.6203 44
461.7036 44
461.7869 54
461.8703 61
461.9536 43
462.0370 40
462.1203 62
462.2036 36
462.2870 68
462.3703 44
462.4537 80
462.5370 36
462.6203 42
462.7037 41
462.7870 40
462.8704 46
462.9537 36
463.0370 35
463.1204 38
463.2037 43
463.2871 56
463.3704 30
463.4537 36
463.5371 23
463.6204 26
463.7038 17
463.7871 20
463.8704 14
463.9538 23
464.0371 28
464.1205 23
464.2038 15
464.2871 27
464.3705 34
464.4538 20
464.5372 35
464.6205 41
464.7038 8
464.7872 46
464.8705 42
464.9539 31
465.0372 38
465.1205 79
465.2039 53
465.2872 46
465.3706 44
465.4539 63
465.5372 58
465.6206 46
465.7039 66
465.7873 102
465.8706 84
465.9539 83
466.0373 69
466.1206 94
466.2040 87
466.2873 97
466.3706 107
466.4540 117
466.5373 125
466.6207 114
466.7040 140
466.7873 117
466.8707 119
466.9540 125
467.0374 138
467.1207 135
467.2040 110
467.2874 148
467.3707 134
467.4541 112
467.5374 162
467.6207 141
467.7041 156
467.7874 155
467.8708 164
467.9541 111
468.0374 110
468.1208 135
468.2041 122
468.2875 162
468.3708 133
468.4541 116
468.5375 131
468.6208 123
468.7042 146
468.7875 90
468.8708 87
468.9542 97
469.0375 86
469.1209 107
469.2042 64
469.2875 81
469.3709 91
469.4542 60
469.5376 52
469.6209 43
469.7042 62
469.7876 71
469.8709 65
469.9543 51
470.0376 60
470.1209 48
470.2043 52
470.2876 47
470.3710 85
470.4543 74
470.5376 59
470.6210 41
470.7043 59
470.7877 74
470.8710 75
470.9543 73
471.0377 49
471.1210 69
471.2044 46
471.2877 32
471.3710 42
471.4544 22
471.5377 26
471.6211 34
471.7044 37
471.7877 31
471.8711 19
471.9544 11
472.0378 14
472.1211 5
472.2044 22
472.2878 17
472.3711 22
472.4545 33
472.5378 17
472.6211 13
472.7045 42
472.7878 26
472.8712 14
472.9545 29
473.0378 40
473.1212 10
473.2045 43
473.2879 43
473.3712 26
473.4545 28
473.5379 33
473.6212 25
473.7046 40
473.7879 43
473.8712 59
473.9546 50
474.0379 62
474.1213 126
474.2046 79
474.2879 36
474.3713 49
474.4546 63
474.5380 46
474.6213 70
474.7046 82
474.7880 120
474.8713 91
474.9547 122
475.0380 78
475.1213 105
475.2047 104
475.2880 133
475.3714 110
475.4547 143
475.5380 102
475.6214 107
475.7047 119
475.7881 79
475.8714 111
475.9547 78
476.0381 112
476.1214 115
476.2048 87
476.2881 99
476.3714 107
476.4548 111
476.5381 85
476.6215 78
476.7048 97
476.7881 61
476.8715 83
476.9548 71
477.0382 85
477.1215 113
477.2048 70
477.2882 84
477.3715 83
477.4549 80
477.5382 66
477.6215 91
477.7049 107
477.7882 104
477.8716 114
477.9549 96
478.0382 110
478.1216 119
478.2049 147
478.2883 106
478.3716 124
478.4549 117
478.5383 107
478.6216 90
478.7050 133
478.7883 149
478.8716 84
478.9550 99
479.0383 126
479.1217 144
479.2050 100
479.2883 134
479.3717 97
479.4550 89
479.5384 69
479.6217 105
479.7050 51
479.7884 45
479.8717 41
479.9551 67
480.0384 48
480.1217 43
480.2051 53
480.2884 38
480.3718 21
480.4551 40
480.5384 16
480.6218 20
480.7051 15
480.7885 23
480.8718 38
480.9551 41
481.0385 24
481.1218 32
481.2052 27
481.2885 47
481.3718 23
481.4552 23
481.5385 23
481.6219 23
481.7052 23
481.7885 31
481.8719 7
481.9552 25
482.0386 7
482.1219 49
482.2052 12
482.2886 18
482.3719 27
482.4553 16
482.5386 9
482.6219 9
482.7053 17
482.7886 26
482.8720 24
482.9553 15
483.0386 19
483.1220 29
483.2053 32
483.2887 49
483.3720 17
483.4553 24
483.5387 43
483.6220 48
483.7054 35
483.7887 48
483.8720 36
483.9554 55
484.0387 24
484.1221 48
484.2054 47
484.2887 59
484.3721 54
484.4554 51
484.5388 61
484.6221 86
484.7054 80
484.7888 48
484.8721 81
484.9555 45
485.0388 90
485.1221 100
485.2055 74
485.2888 94
485.3722 92
485.4555 78
485.5388 93
485.6222 65
485.7055 125
485.7889 103
485.8722 76
485.9555 110
486.0389 88
486.1222 98
486.2056 95
486.2889 84
486.3722 83
486.4556 82
486.5389 95
486.6223 60
486.7056 72
486.7889 88
486.8723 88
486.9556 67
487.0390 79
487.1223 63
487.2056 94
487.2890 63
487.3723 65
487.4557 84
487.5390 80
487.6223 82
487.7057 53
487.7890 84
487.8724 69
487.9557 100
488.0390 75
488.1224 66
488.2057 80
488.2891 70
488.3724 69
488.4557 96
488.5391 72
488.6224 89
488.7058 57
488.7891 71
488.8724 59
488.9558 56
489.0391 76
489.1225 65
489.2058 35
489.2891 35
489.3725 51
489.4558 53
489.5392 62
489.6225 40
489.7058 43
489.7892 30
489.8725 9
489.9559 21
490.0392 20
490.1225 10
490.2059 26
490.2892 8
490.3726 10
490.4559 17
490.5392 8
490.6226 39
490.7059 21
490.7893 2
490.8726 9
490.9559 25
491.0393 17
491.1226 11
491.2060 9
491.2893 46
491.3726 26
491.4560 66
491.5393 14
491.6227 23
491.7060 12
491.7893 26
491.8727 16
491.9560 30
492.0394 28
492.1227 24
492.2060 18
492.2894 6
492.3727 20
492.4561 57
492.5394 44
492.6227 29
492.7061 45
492.7894 48
492.8728 54
492.9561 42
493.0394 34
493.1228 55
493.2061 36
493.2895 61
493.3728 63
493.4561 62
493.5395 49
493.6228 72
493.7062 57
493.7895 61
493.8728 86
493.9562 91
494.0395 56
494.1229 83
494.2062 74
494.2895 99
494.3729 71
494.4562 88
494.5396 61
494.6229 93
494.7062 95
494.7896 96
494.8729 111
494.9563 85
495.0396 111
495.1229 92
495.2063 88
495.2896 73
495.3730 85
495.4563 111
495.5396 101
495.6230 64
495.7063 71
495.7897 70
495.8730 81
495.9563 88
496.0397 70
496.1230 126
496.2064 75
496.2897 61
496.3730 68
496.4564 101
496.5397 62
496.6231 57
496.7064 62
496.7897 99
496.8731 59
496.9564 45
497.0398 57
497.1231 60
497.2064 54
497.2898 73
497.3731 65
497.4565 54
497.5398 50
497.6231 51
497.7065 67
497.7898 62
497.8732 37
497.9565 48
498.0398 59
498.1232 46
498.2065 37
498.2899 27
498.3732 36
498.4565 43
498.5399 30
498.6232 37
498.7066 25
498.7899 45
498.8732 23
498.9566 33
499.0399 45
499.1233 30
499.2066 19
499.2899 18
499.3733 34
499.4566 26
499.5400 24
499.6233 16
499.7066 14
499.7900 18
499.8733 24
499.9567 39
500.0400 29
500.1233 32
500.2067 8
500.2900 18
500.3734 22
500.4567 13
500.5400 7
500.6234 19
500.7067 16
500.7901 9
500.8734 23
500.9567 26
501.0401 48
501.1234 16
501.2068 17
501.2901 5
501.3734 43
501.4568 16
501.5401 15
501.6235 41
501.7068 17
501.7901 39
501.8735 15
501.9568 34
502.0402 20
502.1235 31
502.2068 23
502.2902 60
502.3735 50
502.4569 37
502.5402 34
502.6235 33
502.7069 35
502.7902 41
502.8736 36
502.9569 44
503.0402 57
503.1236 52
503.2069 38
503.2903 26
503.3736 31
503.4569 24
503.5403 44
503.6236 57
503.7070 24
503.7903 46
503.8736 51
503.9570 36
504.0403 68
504.1237 56
504.2070 31
504.2903 35
504.3737 28
504.4570 17
504.5404 25
504.6237 26
504.7070 17
504.7904 34
504.8737 21
504.9571 22
505.0404 29
505.1237 17
505.2071 31
505.2904 34
505.3738 33
505.4571 39
505.5404 55
505.6238 39
505.7071 45
505.7905 54
505.8738 26
505.9571 39
506.0405 31
506.1238 53
506.2072 29
506.2905 24
506.3738 20
506.4572 40
506.5405 29
506.6239 21
506.7072 41
506.7905 21
506.8739 40
506.9572 17
507.0406 14
507.1239 21
507.2072 16
507.2906 19
507.3739 11
507.4573 46
507.5406 36
507.6239 25
507.7073 31
507.7906 27
507.8740 10
507.9573 12
508.0406 37
508.1240 13
508.2073 21
508.2907 11
508.3740 17
508.4573 4
508.5407 36
508.6240 20
508.7074 15
508.7907 40
508.8740 23
508.9574 16
509.0407 16
509.1241 26
509.2074 10
509.2907 12
509.3741 9
509.4574 4
509.5408 14
509.6241 6
509.7074 6
509.7908 21
509.8741 23
509.9575 8
510.0408 26
510.1241 34
510.2075 20
510.2908 14
510.3742 24
510.4575 33
510.5408 8
510.6242 16
510.7075 16
510.7909 10
510.8742 17
510.9575 15
511.0409 23
511.1242 18
511.2076 19
511.2909 29
511.3742 27
511.4576 31
511.5409 46
511.6243 21
511.7076 37
511.7909 53
511.8743 42
511.9576 30
512.0410 19
512.1243 29
512.2076 34
512.2910 40
512.3743 16
512.4577 23
512.5410 25
512.6243 26
512.7077 26
512.7910 20
512.8744 38
512.9577 48
513.0410 33
513.1244 68
513.2077 25
513.2911 21
513.3744 29
513.4577 28
513.5411 47
513.6244 31
513.7078 39
513.7911 28
513.8744 52
513.9578 49
514.0411 33
514.1245 39
514.2078 36
514.2911 46
514.3745 53
514.4578 48
514.5412 29
514.6245 24
514.7078 53
514.7912 32
514.8745 48
514.9579 52
515.0412 25
515.1245 18
515.2079 36
515.2912 46
515.3746 26
515.4579 30
515.5412 19
515.6246 28
515.7079 36
515.7913 37
515.8746 42
515.9579 24
516.0413 31
516.1246 9
516.2080 35
516.2913 28
516.3746 27
516.4580 22
516.5413 48
516.6247 21
516.7080 26
516.7913 21
516.8747 20
516.9580 16
517.0414 41
517.1247 22
517.2080 20
517.2914 31
517.3747 26
517.4581 18
517.5414 22
517.6247 18
517.7081 31
517.7914 43
517.8748 49
517.9581 30
518.0414 11
518.1248 7
518.2081 16
518.2915 10
518.3748 20
518.4581 23
518.5415 30
518.6248 14
518.7082 22
518.7915 26
518.8748 7
518.9582 9
519.0415 33
519.1249 5
519.2082 49
519.2915 19
519.3749 5
519.4582 31
519.5416 31
519.6249 25
519.7082 10
519.7916 6
519.8749 6
519.9583 6
520.0416 16
520.1249 0
520.2083 20
520.2916 23
520.3750 28
520.4583 24
520.5416 4
520.6250 6
520.7083 18
520.7917 11
520.8750 12
520.9583 28
521.0417 11
521.1250 11
521.2084 18
521.2917 50
521.3750 34
521.4584 20
521.5417 25
521.6251 10
521.7084 12
521.7917 4
521.8751 32
521.9584 27
522.0418 13
522.1251 3
522.2084 9
522.2918 12
522.3751 27
522.4585 19
522.5418 17
522.6251 19
522.7085 39
522.7918 26
522.8752 14
522.9585 15
523.0418 23
523.1252 5
523.2085 14
523.2919 17
523.3752 9
523.4585 16
523.5419 7
523.6252 25
523.7086 14
523.7919 11
523.8752 21
523.9586 13
524.0419 22
524.1253 23
524.2086 19
524.2919 10
524.3753 18
524.4586 13
524.5420 35
524.6253 18
524.7086 17
524.7920 28
524.8753 18
524.9587 11
525.0420 21
525.1253 13
525.2087 9
525.2920 38
525.3754 15
525.4587 11
525.5420 22
525.6254 6
525.7087 13
525.7921 8
525.8754 6
525.9587 6
526.0421 13
526.1254 11
526.2088 8
526.2921 2
526.3754 45
526.4588 39
526.5421 3
526.6255 11
526.7088 9
526.7921 12
526.8755 24
526.9588 35
527.0422 12
527.1255 5
527.2088 4
527.2922 19
527.3755 21
527.4589 26
527.5422 35
527.6255 19
527.7089 6
527.7922 2
527.8756 27
527.9589 5
528.0422 5
528.1256 10
528.2089 16
528.2923 14
528.3756 5
528.4589 20
528.5423 5
528.6256 5
528.7090 25
528.7923 8
528.8756 11
528.9590 18
529.0423 20
529.1257 3
529.2090 7
529.2923 17
529.3757 19
529.4590 27
529.5424 12
529.6257 10
529.7090 10
529.7924 7
529.8757 7
529.9591 7
530.0424 30
530.1257 17
530.2091 7
530.2924 4
530.3758 20
530.4591 3
530.5424 19
530.6258 8
530.7091 8
530.7925 19
530.8758 19
530.9591 25
531.0425 15
531.1258 62
531.2092 18
531.2925 28
531.3758 11
531.4592 6
531.5425 7
531.6259 5
531.7092 14
531.7925 15
531.8759 6
531.9592 31
532.0426 0
532.1259 19
532.2092 17
532.2926 25
532.3759 12
532.4593 12
532.5426 18
532.6259 6
532.7093 11
532.7926 20
532.8760 11
532.9593 21
533.0426 12
533.1260 5
533.2093 29
533.2927 4
533.3760 9
533.4593 1
533.5427 2
533.6260 6
533.7094 12
533.7927 10
533.8760 8
533.9594 5
534.0427 10
534.1261 7
534.2094 8
534.2927 22
534.3761 9
534.4594 36
534.5428 9
534.6261 8
534.7094 17
534.7928 3
534.8761 10
534.9595 23
535.0428 14
535.1261 16
535.2095 5
535.2928 17
535.3762 10
535.4595 11
535.5428 27
535.6262 11
535.7095 26
535.7929 5
535.8762 8
535.9595 15
536.0429 15
536.1262 22
536.2096 13
536.2929 9
536.3762 8
536.4596 19
536.5429 10
536.6263 20
536.7096 6
536.7929 39
536.8763 8
536.9596 24
537.0430 4
537.1263 8
537.2096 6
537.2930 3
537.3763 29
537.4597 17
537.5430 8
537.6263 27
537.7097 18
537.7930 8
537.8764 17
537.9597 23
538.0430 1
538.1264 19
538.2097 25
538.2931 16
538.3764 23
538.4597 13
538.5431 12
538.6264 7
538.7098 12
538.7931 9
538.8764 28
538.9598 31
539.0431 8
539.1265 3
539.2098 3
539.2931 15
539.3765 43
539.4598 18
539.5432 7
539.6265 5
539.7098 14
539.7932 14
539.8765 8
539.9599 0
540.0432 20
540.1265 15
540.2099 22
540.2932 10
540.3766 2
540.4599 16
540.5432 5
540.6266 6
540.7099 9
540.7933 11
540.8766 24
540.9599 20
541.0433 4
541.1266 26
541.2100 16
541.2933 10
541.3766 2
541.4600 10
541.5433 6
541.6267 29
541.7100 10
541.7933 29
541.8767 12
541.9600 7
542.0434 19
542.1267 18
542.2100 9
542.2934 30
542.3767 6
542.4601 7
542.5434 3
542.6267 18
542.7101 14
542.7934 17
542.8768 23
542.9601 28
543.0434 12
543.1268 8
543.2101 16
543.2935 8
543.3768 13
543.4601 9
543.5435 28
543.6268 5
543.7102 16
543.7935 25
543.8768 19
543.9602 11
544.0435 32
544.1269 7
544.2102 22
544.2935 11
544.3769 23
544.4602 24
544.5436 16
544.6269 4
544.7102 22
544.7936 6
544.8769 3
544.9603 19
545.0436 2
545.1269 4
545.2103 23
545.2936 2
545.3770 2
545.4603 6
545.5436 10
545.6270 17
545.7103 18
545.7937 7
545.8770 22
545.9603 43
546.0437 3
546.1270 6
546.2104 9
546.2937 16
546.3770 23
546.4604 16
546.5437 8
546.6271 16
546.7104 4
546.7937 11
546.8771 15
546.9604 14
547.0438 5
547.1271 10
547.2104 14
547.2938 44
547.3771 9
547.4605 5
547.5438 9
547.6271 2
547.7105 26
547.7938 25
547.8772 42
547.9605 4
548.0438 3
548.1272 5
548.2105 7
548.2939 9
548.3772 3
548.4605 16
548.5439 9
548.6272 7
548.7106 3
548.7939 10
548.8772 32
548.9606 3
549.0439 12
549.1273 17
549.2106 33
549.2939 9
549.3773 9
549.4606 22
549.5440 3
549.6273 16
549.7106 24
549.7940 26
549.8773 16
549.9607 6
550.0440 18
550.1273 6
550.2107 17
550.2940 27
550.3774 9
550.4607 15
550.5440 27
550.6274 6
550.7107 17
550.7941 5
550.8774 5
550.9607 7
551.0441 21
551.1274 15
551.2108 4
551.2941 24
551.3774 16
551.4608 27
551.5441 9
551.6275 20
551.7108 6
551.7941 20
551.8775 23
551.9608 11
552.0442 16
552.1275 35
552.2108 3
552.2942 11
552.3775 11
552.4609 19
552.5442 31
552.6275 24
552.7109 16
552.7942 19
552.8776 24
552.9609 15
553.0442 16
553.1276 11
553.2109 6
553.2943 1
553.3776 6
553.4609 6
553.5443 40
553.6276 3
553.7110 20
553.7943 8
553.8776 24
553.9610 23
554.0443 17
554.1277 20
554.2110 8
554.2943 21
554.3777 14
554.4610 9
554.5444 17
554.6277 7
554.7110 7
554.7944 27
554.8777 7
554.9611 13
555.0444 7
555.1277 18
555.2111 22
555.2944 4
555.3778 4
555.4611 17
555.5444 29
555.6278 11
555.7111 1
555.7945 6
555.8778 22
555.9611 12
556.0445 15
556.1278 18
556.2112 16
556.2945 21
556.3778 21
556.4612 3
556.5445 22
556.6279 14
556.7112 13
556.7945 5
556.8779 25
556.9612 28
557.0446 41
557.1279 6
557.2112 25
557.2946 24
557.3779 23
557.4613 21
557.5446 4
557.6279 9
557.7113 13
557.7946 14
557.8780 17
557.9613 36
558.0446 33
558.1280 14
558.2113 0
558.2947 5
558.3780 3
558.4613 25
558.5447 19
558.6280 17
558.7114 30
558.7947 23
558.8780 2
558.9614 22
559.0447 19
559.1281 5
559.2114 4
559.2947 9
559.3781 6
559.4614 14
559.5448 16
559.6281 3
559.7114 10
559.7948 10
559.8781 23
559.9615 4
560.0448 14
560.1281 4
560.2115 14
560.2948 11
560.3782 11
560.4615 14
560.5448 31
560.6282 10
560.7115 5
560.7949 12
560.8782 5
560.9615 13
561.0449 25
561.1282 28
561.2116 22
561.2949 20
561.3782 14
561.4616 21
561.5449 16
561.6283 32
561.7116 26
561.7949 9
561.8783 24
561.9616 11
562.0450 19
562.1283 11
562.2116 23
562.2950 16
562.3783 17
562.4617 14
562.5450 13
562.6283 6
562.7117 28
562.7950 22
562.8784 3
562.9617 26
563.0450 7
563.1284 15
563.2117 11
563.2951 33
563.3784 11
563.4617 428
563.5451 20
563.6284 28
563.7118 37
563.7951 15
563.8784 3
563.9618 6
564.0451 8
564.1285 6
564.2118 8
564.2951 15
564.3785 18
564.4618 55
564.5452 0
564.6285 12
564.7118 7
564.7952 12
564.8785 15
564.9619 13
565.0452 20
565.1285 12
565.2119 2
565.2952 8
565.3786 6
565.4619 0
565.5452 28
565.6286 20
565.7119 21
565.7953 4
565.8786 3
565.9619 14
566.0453 23
566.1286 6
566.2120 3
566.2953 2
566.3786 11
566.4620 8
566.5453 23
566.6287 58
566.7120 25
566.7953 17
566.8787 19
566.9620 16
567.0454 25
567.1287 6
567.2120 42
567.2954 13
567.3787 16
567.4621 18
567.5454 7
567.6287 9
567.7121 12
567.7954 12
567.8788 2
567.9621 18
568.0454 10
568.1288 6
568.2121 8
568.2955 9
568.3788 18
568.4621 11
568.5455 26
568.6288 14
568.7122 15
568.7955 7
568.8788 28
568.9622 4
569.0455 18
569.1289 20
569.2122 17
569.2955 8
569.3789 19
569.4622 28
569.5456 1
569.6289 47
569.7122 34
569.7956 24
569.8789 7
569.9623 18
570.0456 15
570.1289 33
570.2123 14
570.2956 10
570.3790 8
570.4623 20
570.5456 16
570.6290 18
570.7123 14
570.7957 21
570.8790 19
570.9623 10
571.0457 14
571.1290 12
571.2124 12
571.2957 5
571.3790 14
571.4624 3
571.5457 14
571.6291 22
571.7124 12
571.7957 2
571.8791 13
571.9624 6
572.0458 23
572.1291 13
572.2124 26
572.2958 34
572.3791 14
572.4625 8
572.5458 13
572.6291 2
572.7125 5
572.7958 15
572.8792 25
572.9625 20
573.0458 30
573.1292 17
573.2125 8
573.2959 13
573.3792 7
573.4625 22
573.5459 27
573.6292 2
573.7126 14
573.7959 22
573.8792 6
573.9626 13
574.0459 10
574.1293 11
574.2126 2
574.2959 26
574.3793 3
574.4626 30
574.5460 8
574.6293 1
574.7126 10
574.7960 16
574.8793 31
574.9627 9
575.0460 11
575.1293 2
575.2127 19
575.2960 2
575.3794 9
575.4627 10
575.5460 4
575.6294 9
575.7127 27
575.7961 13
575.8794 11
575.9627 6
576.0461 6
576.1294 14
576.2128 11
576.2961 35
576.3794 4
576.4628 16
576.5461 14
576.6295 16
576.7128 22
576.7961 14
576.8795 10
576.9628 19
577.0462 8
577.1295 33
577.2128 14
577.2962 4
577.3795 12
577.4629 6
577.5462 7
577.6295 5
577.7129 10
577.7962 11
577.8796 3
577.9629 16
578.0462 21
578.1296 11
578.2129 49
578.2963 11
578.3796 16
578.4629 0
578.5463 18
578.6296 14
578.7130 5
578.7963 7
578.8796 16
578.9630 21
579.0463 8
579.1297 7
579.2130 6
579.2963 9
579.3797 2
579.4630 36
579.5464 9
579.6297 6
579.7130 53
579.7964 17
579.8797 4
579.9631 3
580.0464 15
580.1297 11
580.2131 25
580.2964 15
580.3798 14
580.4631 12
580.5464 11
580.6298 6
580.7131 7
580.7965 14
580.8798 7
580.9631 5
581.0465 3
581.1298 28
581.2132 5
581.2965 18
581.3798 45
581.4632 15
581.5465 19
581.6299 12
581.7132 12
581.7965 12
581.8799 4
581.9632 31
582.0466 16
582.1299 2
582.2132 15
582.2966 13
582.3799 26
582.4633 20
582.5466 6
582.6299 6
582.7133 37
582.7966 10
582.8800 3
582.9633 11
583.0466 8
583.1300 4
583.2133 29
583.2967 16
583.3800 18
583.4633 14
583.5467 18
583.6300 26
583.7134 34
583.7967 2
583.8800 13
583.9634 13
584.0467 19
584.1301 5
584.2134 7
584.2967 16
584.3801 22
584.4634 37
584.5468 19
584.6301 7
584.7134 29
584.7968 10
584.8801 12
584.9635 4
585.0468 11
585.1301 20
585.2135 10
585.2968 6
585.3802 3
585.4635 1
585.5468 15
585.6302 30
585.7135 14
585.7969 21
585.8802 18
585.9635 4
586.0469 20
586.1302 10
586.2136 30
586.2969 5
586.3802 47
586.4636 10
586.5469 22
586.6303 18
586.7136 10
586.7969 10
586.8803 7
586.9636 19
587.0470 25
587.1303 11
587.2136 19
587.2970 12
587.3803 22
587.4637 22
587.5470 18
587.6303 14
587.7137 9
587.7970 17
587.8804 20
587.9637 5
588.0470 20
588.1304 7
588.2137 6
588.2971 11
588.3804 10
588.4637 25
588.5471 26
588.6304 22
588.7138 31
588.7971 13
588.8804 23
588.9638 6
589.0471 14
589.1305 7
589.2138 24
589.2971 6
589.3805 31
589.4638 20
589.5472 5
589.6305 5
589.7138 22
589.7972 4
589.8805 26
589.9639 6
590.0472 25
590.1305 16
590.2139 17
590.2972 0
590.3806 19
590.4639 12
590.5472 13
590.6306 4
590.7139 16
590.7973 6
590.8806 8
590.9639 21
591.0473 2
591.1306 8
591.2140 4
591.2973 7
591.3806 11
591.4640 1
591.5473 11
591.6307 11
591.7140 27
591.7973 21
591.8807 8
591.9640 19
592.0474 1
592.1307 26
592.2140 14
592.2974 5
592.3807 11
592.4641 4
592.5474 18
592.6307 7
592.7141 4
592.7974 3
592.8808 5
592.9641 29
593.0474 12
593.1308 4
593.2141 44
593.2975 11
593.3808 7
593.4641 9
593.5475 15
593.6308 21
593.7142 12
593.7975 5
593.8808 10
593.9642 16
594.0475 4
594.1309 9
594.2142 8
594.2975 14
594.3809 7
594.4642 4
594.5476 22
594.6309 13
594.7142 18
594.7976 0
594.8809 12
594.9643 15
595.0476 5
595.1309 9
595.2143 25
595.2976 17
595.3810 2
595.4643 18
595.5476 18
595.6310 14
595.7143 15
595.7977 2
595.8810 13
595.9643 12
596.0477 13
596.1310 6
596.2144 28
596.2977 10
596.3810 37
596.4644 15
596.5477 19
596.6311 12
596.7144 31
596.7977 30
596.8811 5
596.9644 6
597.0478 9
597.1311 18
597.2144 7
597.2978 14
597.3811 4
597.4645 14
597.5478 9
597.6311 5
597.7145 49
597.7978 8
597.8812 30
597.9645 3
598.0478 7
598.1312 22
598.2145 9
598.2979 17
598.3812 5
598.4645 43
598.5479 2
598.6312 25
598.7146 26
598.7979 15
598.8812 7
598.9646 7
599.0479 3
599.1313 8
599.2146 13
599.2979 9
599.3813 7
599.4646 5
599.5480 13
599.6313 9
599.7146 10
599.7980 21
599.8813 18
599.9647 21
